timestamp,emg1,emg2,emg3,emg4,emg5,emg6,emg7,emg8
1513230564277808,-1,2,-4,5,4,1,-1,-1
1513230564277808,0,-2,0,-4,-2,-3,-1,-1
1513230564279312,-2,-2,-1,-1,0,-1,1,-1
1513230564279312,-1,-1,-1,-1,-3,-1,0,0
1513230564299824,-4,-2,-2,-8,-2,0,-1,-2
1513230564299824,-2,3,2,5,2,-1,0,-2
1513230564301826,3,-5,-5,6,0,-1,-3,0
1513230564301826,-2,0,3,-4,-2,-1,-2,0
1513230564314334,1,-1,-6,-3,-3,0,-2,-1
1513230564314334,-2,0,2,4,-3,-2,-1,2
1513230564321842,-4,0,-2,-7,-2,-1,-2,-3
1513230564321842,4,-2,-1,5,4,2,-2,-1
1513230564344856,0,-1,-2,5,-2,-3,-1,-1
1513230564344856,-4,-3,-2,-12,-1,1,-1,-2
1513230564347358,-3,-1,-3,-1,-3,-2,-1,-1
1513230564347358,-1,-3,0,-2,0,-3,-1,-1
1513230564360876,-2,1,3,1,-1,0,-1,-1
1513230564360876,0,-2,1,-5,-4,-3,-2,0
1513230564362379,-1,-2,-1,-3,-1,-1,-1,-2
1513230564362379,1,-1,-7,-6,-1,-2,-1,-1
1513230564374378,-3,-8,-5,3,-1,-2,-2,-2
1513230564374378,-3,1,-1,-3,0,0,-1,1
1513230564380881,-2,1,-3,-1,0,-1,-1,-2
1513230564380881,-3,2,2,2,-3,-1,-2,-1
1513230564397895,-4,-2,-1,-1,-2,-3,1,-1
1513230564397895,-2,-1,-3,-8,-3,0,-1,-2
1513230564399395,0,0,-2,10,1,-1,0,1
1513230564399395,2,-3,-3,1,-2,1,-1,-1
1513230564420412,-2,1,5,-13,-2,0,-1,-1
1513230564420412,-1,-2,4,10,3,-1,-1,-3
1513230564421411,-1,0,0,-3,-2,-2,-2,2
1513230564421411,-1,-1,-1,2,2,-2,-1,-2
1513230564434420,0,1,-1,13,-1,1,-2,-1
1513230564434420,-1,-4,-5,-13,-1,-1,-1,-1
1513230564440924,-2,-3,0,-15,-3,-1,0,-1
1513230564440924,0,0,-3,10,0,-1,-1,-1
1513230564457439,0,0,-2,-4,-2,-1,-1,-1
1513230564457439,-2,1,0,6,-1,-1,0,-2
1513230564458937,-3,-6,-6,-6,-1,-3,-1,-1
1513230564458937,-3,-3,-5,4,0,1,1,-1
1513230564479951,0,-1,4,-2,-1,-3,-2,-1
1513230564479951,-1,-2,-4,0,-1,0,0,0
1513230564481453,-2,0,1,-5,-1,0,-1,-2
1513230564481453,-3,1,9,-2,-2,-3,0,-2
1513230564502970,-1,-2,-8,-2,3,-1,-3,0
1513230564502970,-2,-4,-5,0,0,-1,-2,0
1513230564503969,1,-2,0,3,-2,-3,-2,-1
1513230564503969,0,-5,-8,-12,-2,0,-1,0
1513230564517478,-6,-1,2,7,0,-1,0,-1
1513230564517478,-2,2,6,-3,-2,-1,-1,-1
1513230564525484,-4,1,6,16,0,1,1,-2
1513230564525484,-1,1,-5,-15,-2,-2,-3,-2
1513230564540007,4,2,1,3,3,1,1,2
1513230564540007,-3,-2,-3,-2,-4,-2,-1,0
1513230564541505,-3,0,-3,8,3,1,0,-3
1513230564541505,-3,-1,2,-4,-3,-1,-1,-2
1513230564554537,3,-3,-4,4,-4,0,-2,-2
1513230564554537,1,-2,-10,-6,3,-1,0,-1
1513230564561073,-1,0,1,-5,-1,-2,-3,-3
1513230564561073,-1,0,-1,4,-1,-3,0,0
1513230564577618,-2,-2,-1,-11,-4,-2,-2,0
1513230564577618,0,-1,6,2,-1,-1,-2,-1
1513230564579121,0,-2,-6,-6,-1,-1,-1,-1
1513230564579121,-1,-2,3,0,-2,-2,1,0
1513230564600628,-2,-4,-3,0,-1,0,1,0
1513230564600628,-6,2,7,7,-2,-2,0,-4
1513230564602628,-1,-2,-4,-5,0,-2,0,0
1513230564602628,-1,4,1,0,-1,-2,-1,2
1513230564614635,-2,5,5,2,1,0,-1,0
1513230564614635,2,-2,-1,2,-2,-1,-1,-3
1513230564621140,-1,-3,-3,-9,-3,-1,0,-1
1513230564621140,-1,-4,0,8,2,0,-1,-4
1513230564637653,-1,-3,-9,-12,-2,-2,-2,-2
1513230564637653,-1,1,-1,-2,-2,-1,-1,-1
1513230564639154,-3,-3,2,8,1,0,-2,-2
1513230564639154,-1,-1,-4,-3,-4,-2,-1,-2
1513230564660269,-1,-4,-2,-1,-1,-2,-1,-2
1513230564660269,0,-2,-2,-3,-1,-2,-1,-1
1513230564661747,0,1,4,4,-2,0,-1,-1
1513230564661747,-2,-2,-3,-8,1,-1,-2,0
1513230564673754,1,-1,-4,-5,-4,0,0,-1
1513230564673754,-3,-1,4,5,-1,-2,-2,-2
1513230564682761,-4,7,1,-2,0,-1,0,1
1513230564682761,-1,0,1,-5,0,0,0,-2
1513230564697268,1,0,0,8,-1,-3,-1,-1
1513230564697268,3,0,-11,-8,-1,-1,-1,1
1513230564699269,0,-1,3,-5,-4,-1,-2,-3
1513230564699269,-3,-1,-2,-2,-4,-3,-1,-2
1513230564719785,-2,-2,-3,2,2,0,1,0
1513230564719785,-5,-1,2,9,0,1,0,1
1513230564721786,1,-2,-6,-11,-2,-2,1,-1
1513230564721786,-1,-3,-4,-2,-1,-2,-1,-1
1513230564742822,0,-3,2,-11,-1,-2,-1,-1
1513230564742822,-2,-5,-1,4,-1,-1,-1,-2
1513230564743300,-1,-2,-10,-5,0,-1,-3,0
1513230564743300,-1,0,8,5,-1,-1,-3,0
1513230564756809,-1,-1,-8,-6,0,-1,0,-1
1513230564756809,1,-4,-5,-9,-2,-2,-1,-1
1513230564757810,-2,1,5,12,1,-1,0,-1
1513230564757810,-1,-3,-11,-2,0,0,-1,-1
1513230564779835,3,0,3,-2,-2,0,-2,-1
1513230564779835,-7,0,4,-4,-4,-1,-2,-4
1513230564780836,2,-3,-3,-11,-1,-1,-2,0
1513230564780836,-2,1,2,10,0,-1,1,0
1513230564802853,-2,-1,-6,-7,-2,-1,-1,0
1513230564802853,3,0,-3,-1,-1,-1,-2,1
1513230564803343,0,0,1,10,1,-1,-2,-1
1513230564803343,-2,-4,1,-4,-4,-1,-1,0
1513230564816861,-2,0,-3,-2,0,-2,-1,-3
1513230564816861,2,2,2,-5,-1,0,-1,0
1513230564817852,-1,-5,-3,-1,-3,-1,-4,-2
1513230564817852,1,1,0,-1,2,0,-2,-1
1513230564839377,-2,-2,-3,-3,0,-2,-3,-1
1513230564839377,1,-2,-6,-2,0,-1,0,-1
1513230564840367,-2,0,2,4,2,-1,0,-1
1513230564840367,-1,1,-1,0,-2,0,-1,0
1513230564862956,-4,-9,-5,-1,-3,-1,-3,-4
1513230564862956,0,-1,-3,-1,-2,-2,-2,-2
1513230564863956,2,-1,-4,-3,-3,0,-1,-1
1513230564863956,-1,-2,-3,-5,-2,-1,-1,1
1513230564884955,-1,-1,2,2,-1,0,0,-1
1513230564884955,-1,-1,-6,0,0,1,0,-1
1513230564885959,0,-2,-3,-1,0,-2,0,-1
1513230564885959,-1,1,3,-11,-1,-2,-1,-1
1513230564899467,0,3,0,7,1,-1,-1,0
1513230564899467,-1,0,1,1,-1,0,0,0
1513230564899976,-3,-1,-2,-6,-4,0,-1,-2
1513230564899976,1,-2,3,5,-2,-1,-2,0
1513230564922546,-1,2,0,-9,-1,0,-2,0
1513230564922546,-1,0,-1,1,-1,-1,-2,-1
1513230564923034,-2,-4,1,1,0,-2,0,-3
1513230564923034,-3,-4,-9,0,-2,-2,0,0
1513230564937045,-5,2,9,7,2,-1,-2,-1
1513230564937045,-3,0,-3,-10,-1,-3,-1,-1
1513230564937544,0,-2,-5,-2,-1,0,-1,2
1513230564937544,-9,1,4,0,0,0,0,-4
1513230564959587,-5,2,7,4,-1,-4,-2,-3
1513230564959587,-2,-2,-6,-4,0,1,-1,-2
1513230564960060,3,-2,-14,-10,-3,-1,0,0
1513230564960060,2,-3,11,-3,-2,-2,-1,-2
1513230564982634,0,-3,3,11,0,-1,-1,-1
1513230564982634,-1,0,3,-8,1,-1,0,1
1513230564983625,-4,2,1,2,1,-2,-2,-4
1513230564983625,2,0,-10,-8,-1,-1,-1,-1
1513230564996608,2,-2,-11,-13,-5,-1,0,-1
1513230564996608,-4,-3,3,-1,-2,0,0,1
1513230564997610,0,-3,1,7,1,0,2,-1
1513230564997610,4,-1,-7,0,-1,-1,-1,0
1513230565019603,-5,-10,3,4,-2,-2,0,-1
1513230565019603,3,-1,-9,-8,-1,0,-2,-1
1513230565020106,0,1,11,2,-2,-2,-4,-1
1513230565020106,-3,-4,-2,0,-2,-1,-2,-1
1513230565042640,3,6,-4,-6,0,0,-1,-1
1513230565042640,1,-1,-1,13,0,-1,-1,-1
1513230565043119,0,-4,1,-3,0,0,-1,1
1513230565043119,3,-1,-9,-8,2,-1,0,-4
1513230565057155,-1,-1,2,-2,-4,0,0,-1
1513230565057155,-2,1,6,13,0,-1,-1,-2
1513230565058130,-1,3,0,-3,1,0,1,0
1513230565058130,-3,-5,-4,1,-2,-2,-1,1
1513230565079144,-6,4,-3,-7,-2,-1,0,0
1513230565079144,0,-5,-1,-7,-3,-2,0,-1
1513230565080159,-3,-1,0,7,-3,-2,-2,-1
1513230565080159,0,-2,-3,4,3,-1,1,-1
1513230565102662,-2,-1,-2,-7,-3,-1,-1,-2
1513230565102662,0,1,8,0,-5,-3,-1,-2
1513230565103163,0,2,-5,-5,-1,0,0,-1
1513230565103163,-1,3,1,-3,-3,-2,-1,0
1513230565116670,2,1,-3,3,-1,-2,-2,-2
1513230565116670,4,-4,-14,-8,-4,-3,-2,-1
1513230565117671,-1,-2,2,-7,-3,-2,-2,-2
1513230565117671,-3,2,3,-4,-2,-1,0,0
1513230565139187,-2,0,7,3,-2,0,-1,-2
1513230565139187,-4,-2,-8,3,2,-1,-1,0
1513230565140188,1,1,-3,-4,-2,-2,-1,-1
1513230565140188,-1,-3,-4,1,-1,-1,-3,-1
1513230565162706,-4,-5,-3,-3,0,0,0,-1
1513230565162706,0,0,0,-6,-3,-1,0,-1
1513230565163203,-3,1,2,-1,-1,-1,-1,-2
1513230565163203,0,0,5,4,-2,-1,-2,-2
1513230565176713,-5,2,-3,-6,2,0,0,0
1513230565176713,-2,-8,-6,-3,0,0,-1,-1
1513230565177713,-1,-4,-2,0,-2,-1,-1,-1
1513230565177713,0,-7,-3,-3,-2,-1,-2,-1
1513230565199242,2,3,-5,6,-2,0,-2,-4
1513230565199242,-1,-2,0,-4,-2,-2,-2,0
1513230565200230,0,1,7,1,0,-2,-1,-2
1513230565200230,-1,-4,-1,1,2,2,-1,-1
1513230565222745,-1,0,-2,-2,0,-1,0,0
1513230565222745,-3,0,3,13,-2,-2,-1,-1
1513230565223246,-1,-3,-10,-10,-2,0,-2,-1
1513230565223246,-1,5,7,3,-1,0,-1,-1
1513230565236755,-1,-3,3,2,-2,-1,0,0
1513230565236755,0,-4,-1,0,-1,-2,-1,-4
1513230565237756,3,-8,-4,1,-4,-3,-2,0
1513230565237756,-3,-2,-7,4,2,0,-1,-1
1513230565259272,4,0,-6,-7,-1,-1,-1,1
1513230565259272,-1,3,7,-1,0,-1,0,0
1513230565260289,-1,-3,-5,1,0,0,0,1
1513230565260289,-1,-2,0,-7,-1,-2,2,-2
1513230565282288,1,-3,-1,-2,-2,-2,-1,0
1513230565282288,-1,1,0,2,0,-2,-2,-1
1513230565283290,1,0,-2,-2,0,-1,1,0
1513230565283290,1,3,-3,-3,-3,-1,-2,-1
1513230565296813,1,1,2,3,-3,-3,-3,-2
1513230565296813,1,-5,-12,-13,3,1,-1,-2
1513230565297800,-4,2,8,7,0,-1,-1,-4
1513230565297800,-3,-1,1,1,0,-3,0,-1
1513230565319315,4,-2,-4,-9,-4,-1,-2,3
1513230565319315,1,2,2,2,-1,-1,-3,0
1513230565320314,0,-2,-8,4,1,-2,0,-2
1513230565320314,-2,-1,-1,0,0,-2,-1,-1
1513230565342343,-1,-1,1,-3,-1,-1,-1,-1
1513230565342343,-1,1,0,-6,-2,-1,1,-1
1513230565343333,-4,1,2,-3,-1,-1,-2,0
1513230565343333,1,-2,1,0,-3,0,-1,-3
1513230565356870,1,-2,-6,-2,-1,0,-2,0
1513230565356870,0,0,2,-1,-3,-1,-2,-3
1513230565357369,-4,-2,2,-1,0,0,1,0
1513230565357369,-2,-1,0,-2,-1,-1,-1,-1
1513230565379386,-2,0,0,-6,-2,-1,-2,-3
1513230565379386,-3,0,1,8,1,0,0,1
1513230565379889,3,-11,-9,-2,-1,-2,-1,-1
1513230565379889,-2,-2,-4,4,-3,-1,0,-2
1513230565402903,-5,-4,1,1,4,0,1,-2
1513230565402903,-4,2,-2,-5,-2,-1,0,-3
1513230565403402,-2,0,-5,-17,-2,-1,-1,0
1513230565403402,0,2,12,8,1,-1,-2,-1
1513230565417412,-1,-2,-1,8,1,0,0,-1
1513230565417412,0,-3,-2,-1,-2,-2,-2,-1
1513230565417912,-2,1,0,-3,-3,-1,0,0
1513230565417912,-2,-1,-5,0,-4,0,-2,-1
1513230565439429,-1,2,-5,-16,0,0,-3,1
1513230565439429,3,-2,1,3,-1,-1,-4,1
1513230565439929,-1,2,0,1,1,0,1,-1
1513230565439929,-1,1,-2,2,-1,1,-2,-2
1513230565462539,0,-4,0,4,-1,0,-2,-3
1513230565462539,-1,6,1,-5,-3,0,0,-1
1513230565463036,-1,0,2,5,-3,-2,-3,-2
1513230565463036,-1,-3,-4,-10,1,0,-1,-1
1513230565476546,0,-4,-5,1,-1,-1,-1,-1
1513230565476546,-1,-3,1,4,0,-2,0,2
1513230565477547,-1,-1,-3,0,1,0,-2,0
1513230565477547,-1,2,1,-9,-2,-2,0,1
1513230565499062,-4,0,0,7,0,-1,0,1
1513230565499062,-1,-2,-2,-1,2,-2,-1,-1
1513230565500063,1,1,3,1,-1,-2,-2,-1
1513230565500063,-5,-5,-3,-6,0,0,-1,-2
1513230565522620,0,-1,-2,-2,-2,-1,-1,0
1513230565522620,0,-3,-3,-1,0,1,-1,0
1513230565523120,-1,0,-2,-1,-1,-2,0,-2
1513230565523120,0,-1,0,-5,-2,-2,0,-1
1513230565536640,1,1,0,1,-2,-3,-2,-1
1513230565536640,-4,-2,-10,-5,-2,0,1,-1
1513230565537631,-3,0,13,-7,-4,-1,-1,-2
1513230565537631,1,4,13,14,2,-1,0,-1
1513230565559187,0,0,3,1,-1,-1,-2,0
1513230565559187,2,-3,-6,-3,-1,-1,-1,-1
1513230565560188,2,-11,-13,-8,-2,-1,-2,-3
1513230565560188,-3,-3,-10,-3,-2,-1,-1,-2
1513230565590209,-1,-1,0,1,-2,0,1,-2
1513230565590209,1,-1,4,1,-2,-2,-1,-1
1513230565590709,0,0,-6,-4,-1,0,1,-1
1513230565590709,-4,-2,-4,1,1,0,-3,1
1513230565596716,1,-3,0,-1,1,-2,-4,0
1513230565596716,-3,0,1,-2,-2,-2,1,-3
1513230565597714,0,3,3,3,-1,0,-1,0
1513230565597714,-1,-3,0,-4,-2,-1,0,-2
1513230565619229,0,-1,-2,0,-3,0,2,-2
1513230565619229,2,-2,-2,-5,-2,-4,-2,-1
1513230565620230,-2,0,1,-4,-1,-2,-1,0
1513230565620230,1,2,-2,-1,-3,0,-2,-1
1513230565642747,1,-1,-5,2,1,-1,-1,-2
1513230565642747,-3,-2,1,-2,-1,-1,-3,-2
1513230565643246,-2,6,1,-10,-2,-2,-2,0
1513230565643246,-2,-3,-3,2,0,-1,0,0
1513230565656816,-3,0,-2,-3,0,-1,-1,0
1513230565656816,-1,-1,10,2,0,0,-1,0
1513230565657828,-4,-2,-3,2,-1,0,0,-2
1513230565657828,1,0,-2,-5,-2,-2,-1,1
1513230565679322,-3,-1,-2,-2,-1,1,-1,0
1513230565679322,-3,-1,1,2,-5,-1,-1,0
1513230565680323,2,-5,-9,-9,0,1,-3,1
1513230565680323,-5,0,1,2,0,-1,-1,-3
1513230565702849,3,-1,1,1,-2,-2,-1,-2
1513230565702849,2,1,-1,0,1,1,-2,0
1513230565703349,1,-3,1,3,-4,-3,0,-3
1513230565703349,-4,-9,-4,-4,-2,0,-2,-2
1513230565716348,-2,-2,-1,3,3,0,1,0
1513230565716348,-4,1,-2,5,-2,-3,-2,-2
1513230565724354,-3,0,1,8,3,-1,0,0
1513230565724354,3,-2,-4,-14,-3,-2,0,0
1513230565739366,-3,0,1,-4,-2,-1,-2,-1
1513230565739366,0,-2,-3,-10,-1,2,-1,-1
1513230565739866,0,-2,-2,3,-1,-1,-1,-2
1513230565739866,1,5,0,2,-1,-1,-1,0
1513230565761919,0,-3,-1,-6,-3,-2,-1,0
1513230565761919,-4,0,1,0,-1,-2,-1,-2
1513230565762420,2,-2,-2,0,-2,0,0,-1
1513230565762420,2,1,-1,1,0,-2,-1,1
1513230565775940,-1,0,-3,-1,-2,-1,-1,-2
1513230565775940,-1,-2,-4,-4,-2,-1,-2,0
1513230565784435,-3,-1,2,3,-3,-2,1,0
1513230565784435,0,-3,-6,4,2,-1,-1,-1
1513230565799458,1,-1,-1,-2,-1,-2,-1,-1
1513230565799458,-3,0,2,0,-1,1,0,0
1513230565799947,0,0,1,-3,-5,1,0,-1
1513230565799947,-2,-3,-5,-1,3,0,0,-2
1513230565822476,0,-1,-1,1,0,-3,-1,-1
1513230565822476,-2,-2,-1,-2,-1,-2,-1,-1
1513230565823488,0,-2,1,0,0,-1,-1,1
1513230565823488,-6,1,0,-4,-3,-1,-2,-2
1513230565836472,-1,-1,-3,-8,-1,0,-3,-3
1513230565836472,1,-2,-6,3,3,0,-1,0
1513230565844480,-4,-1,-1,1,-2,-3,0,-1
1513230565844480,0,-2,-2,0,-2,-1,-2,-1
1513230565859488,0,-1,-4,0,1,0,0,-2
1513230565859488,-2,0,6,-1,-2,-2,-1,-1
1513230565859988,0,-2,0,-2,-2,-2,-1,0
1513230565859988,-2,6,6,-1,-1,0,0,-1
1513230565881504,-4,3,2,-1,-1,0,-1,0
1513230565881504,2,-1,-3,-2,0,0,0,-1
1513230565889509,-2,0,-2,1,0,0,-1,-1
1513230565889509,2,-4,-1,-3,-3,-2,0,1
1513230565905020,-4,-5,0,0,0,-1,0,-2
1513230565905020,-5,-1,2,6,0,0,-1,-1
1513230565905521,0,-2,-4,-11,0,0,-2,-3
1513230565905521,2,-3,-2,10,0,0,1,-1
1513230565919530,-3,0,1,-3,-4,-1,-2,-2
1513230565919530,2,-3,-6,-2,-2,1,-2,-1
1513230565920032,2,0,-6,-2,-1,0,-1,-1
1513230565920032,2,2,2,-3,-2,0,0,-2
1513230565942556,2,0,-1,1,-2,-1,0,0
1513230565942556,-1,1,-2,-4,-2,-2,-1,-3
1513230565943551,-4,-5,-4,-1,-2,-1,-3,-3
1513230565943551,-1,0,0,-2,-1,-1,-2,-1
1513230565956056,-1,-4,-1,0,1,-1,-1,1
1513230565956056,0,0,-2,-3,0,-2,-2,-1
1513230565964064,-1,-1,2,1,0,-1,0,-1
1513230565964064,-1,-4,-1,0,-1,-1,-2,-1
1513230565979572,-4,3,3,-1,-1,-1,-1,-2
1513230565979572,-1,-3,-1,0,-1,-2,-1,0
1513230565980072,1,2,-1,-7,2,-2,-1,0
1513230565980072,0,-1,-2,-7,-1,-2,-2,-3
1513230566002590,1,-3,-1,3,-1,-1,-1,-2
1513230566002590,-1,0,-1,0,-1,-1,0,-2
1513230566003090,2,3,1,2,-3,-2,-2,-1
1513230566003090,-3,0,1,-2,-1,1,-1,-1
1513230566016101,-1,-4,-2,-2,-1,-2,-1,-2
1513230566016101,3,0,-3,0,-1,-3,-1,2
1513230566024104,-3,-7,-2,-1,-2,0,-1,-3
1513230566024104,0,-2,-3,3,2,0,-2,0
1513230566039124,2,3,1,-1,-1,0,-1,0
1513230566039124,-1,-1,1,-5,-2,-1,1,-1
1513230566040116,-1,2,1,0,-3,-3,-2,1
1513230566040116,0,-1,-6,-9,3,-1,-1,1
1513230566062141,-1,-2,-2,-2,-2,-2,-2,1
1513230566062141,-1,0,-2,-2,0,-2,-1,-1
1513230566063141,0,3,-1,2,-2,0,-2,-2
1513230566063141,-1,0,-1,4,-3,-2,-1,-1
1513230566085156,-1,-3,-5,-5,-1,1,0,1
1513230566085156,-5,-1,1,3,1,-1,-1,-3
1513230566085650,-1,-4,-3,-1,0,-2,-1,-2
1513230566085650,0,-1,0,-1,-2,-1,-2,0
1513230566099189,-1,-2,-3,-1,1,-1,-1,-2
1513230566099189,1,-2,-1,-4,-2,-1,-1,-1
1513230566100168,-4,-3,-1,4,2,-1,-1,-2
1513230566100168,1,-2,-2,-3,-3,-2,0,0
1513230566122692,0,-3,-1,3,-1,-2,-1,-1
1513230566122692,-2,1,0,-10,-2,-1,1,0
1513230566123175,-3,1,-2,3,1,-1,0,0
1513230566123175,-2,-1,0,5,-1,-1,-2,-1
1513230566145192,5,1,-2,-6,-1,0,-1,0
1513230566145192,-2,-3,-4,-2,2,0,-1,0
1513230566146691,-1,0,2,-6,-2,-1,-1,-2
1513230566146691,4,-1,-1,-5,-2,-2,-2,-1
1513230566159199,3,-4,-1,6,-2,-2,-1,-1
1513230566159199,-2,-3,-3,-10,-2,-2,-3,-3
1513230566160200,-1,0,-3,-5,0,-1,-1,1
1513230566160200,-2,-1,-1,-3,-4,-2,-1,-1
1513230566182726,-1,2,0,0,0,0,0,-1
1513230566182726,0,-1,0,8,-2,-1,-2,-1
1513230566183218,-2,-1,0,-6,-1,-1,0,0
1513230566183218,-2,-2,-1,2,0,0,-1,-2
1513230566205234,-3,-2,1,0,-1,1,-1,0
1513230566205234,0,1,-1,-1,0,-1,-2,1
1513230566206235,-3,0,0,-2,-5,-3,-3,-1
1513230566206235,-3,-1,-1,2,-1,-2,0,0
1513230566220755,-5,1,-3,-4,0,-1,0,0
1513230566220755,2,-3,-1,3,-1,0,-1,-1
1513230566221746,-2,-3,-6,-16,-1,0,-1,-1
1513230566221746,-2,-1,1,0,-2,-1,-1,-1
1513230566242760,0,-1,1,1,-2,-2,-3,-3
1513230566242760,-5,-3,0,-8,-3,-2,1,-2
1513230566243262,0,0,1,19,1,0,-2,-1
1513230566243262,-3,-1,0,-5,-3,-3,-1,-2
1513230566265286,-2,-1,0,4,-2,-2,-1,-1
1513230566265286,0,-2,-3,2,1,0,-2,1
1513230566265777,-2,-1,-2,-7,-1,0,-1,-1
1513230566265777,-1,-1,-4,0,-1,-1,-1,-1
1513230566279296,2,-1,0,-7,1,-1,-3,-2
1513230566279296,-3,-9,-3,-3,-3,-2,1,-4
1513230566280287,-2,-3,1,0,2,0,0,-1
1513230566280287,0,3,1,4,0,0,-2,-1
1513230566302816,-3,-2,0,-2,-2,-3,-2,-1
1513230566302816,0,0,-2,-4,-1,-2,0,1
1513230566303303,0,-1,0,4,-1,-2,1,0
1513230566303303,-3,-2,-3,-11,-2,-4,0,1
1513230566324828,-2,0,-1,10,-1,-2,-1,-2
1513230566324828,-3,2,-2,1,1,0,-2,0
1513230566325830,1,1,-3,0,-1,-1,1,0
1513230566325830,1,0,-1,-1,-1,0,-3,1
1513230566339330,-3,0,1,-12,-1,-3,-2,-1
1513230566339330,0,1,-1,2,2,0,0,0
1513230566340331,0,0,0,0,-3,-1,-4,-1
1513230566340331,-3,-2,-1,-4,-3,-1,0,-2
1513230566362382,0,-2,-2,-1,-1,1,-1,0
1513230566362382,-1,0,1,4,-1,0,0,-2
1513230566363345,-2,0,2,-5,-2,-1,-1,-3
1513230566363345,-1,0,-1,3,-2,-1,-1,-1
1513230566384862,-1,-5,-5,-2,-2,-3,-2,-2
1513230566384862,-1,0,-1,0,-3,-2,-3,0
1513230566385860,0,0,0,-1,-2,-2,-2,-1
1513230566385860,2,3,-2,-2,0,-2,-1,-2
1513230566399372,-3,1,-2,-1,0,-1,0,-1
1513230566399372,0,-1,-1,-8,-3,-2,0,-2
1513230566400370,-1,-1,3,17,-2,-3,0,0
1513230566400370,-3,-5,-4,-2,2,0,0,0
1513230566422385,0,-2,0,1,1,0,-1,2
1513230566422385,-1,0,1,-1,-3,-1,0,0
1513230566423387,-3,0,-1,-9,1,-1,-1,-2
1513230566423387,1,0,0,2,-3,0,-1,-1
1513230566445405,-3,2,-3,1,0,0,0,-1
1513230566445405,-2,-3,-5,-1,-3,-3,-4,-3
1513230566446903,-3,3,0,0,2,2,0,-2
1513230566446903,-6,0,2,-2,2,1,-1,-2
1513230566459438,1,2,3,-3,-2,-1,-1,-1
1513230566459438,0,-2,-2,-1,-2,-1,-2,-1
1513230566459913,-3,-3,-2,-5,-2,-2,0,-3
1513230566459913,1,-2,0,-1,-2,0,0,-1
1513230566482467,1,-2,-2,6,-2,0,0,0
1513230566482467,-1,0,-2,-4,2,-1,0,1
1513230566483455,4,-3,-4,-6,-3,-1,-2,1
1513230566483455,-2,-1,0,8,0,0,-1,-1
1513230566504979,-1,-2,-1,-3,0,2,0,-1
1513230566504979,0,-2,0,0,-2,-2,0,-3
1513230566505980,1,3,2,-1,-3,-3,1,-1
1513230566505980,-2,-5,-4,-7,1,-2,-1,-2
1513230566527487,-2,1,2,-3,-1,-1,-2,-1
1513230566527487,0,2,1,-3,1,1,-2,-1
1513230566528487,-1,-3,-2,1,-2,-2,-2,-1
1513230566528487,-2,-1,1,2,-1,-2,0,-2
1513230566542506,0,0,-4,-7,0,0,-1,-1
1513230566542506,-2,-2,-1,2,1,-2,-2,-1
1513230566543006,-2,-1,0,-3,-1,-2,-2,-1
1513230566543006,3,-3,-2,0,-1,-1,-1,0
1513230566565015,-7,-2,-2,-6,-2,-1,-2,-4
1513230566565015,-4,0,1,9,-1,0,-1,-1
1513230566565513,0,0,-2,-2,1,0,-1,-1
1513230566565513,2,-1,-1,-11,-4,-1,-1,1
1513230566579533,2,2,1,3,3,-1,-1,0
1513230566579533,-1,0,-3,-9,2,3,1,1
1513230566580523,-3,-1,-1,3,1,-2,0,-3
1513230566580523,-3,0,1,-1,-2,0,0,0
1513230566602539,1,-3,-2,-8,-5,-2,-1,0
1513230566602539,-1,-4,-3,3,-2,-3,-1,-1
1513230566603039,-7,0,0,3,2,2,-2,-3
1513230566603039,-1,-1,-6,-3,-1,0,-1,-2
1513230566625074,-1,-1,3,-3,-3,-1,-1,-2
1513230566625074,0,-3,0,1,-2,-2,0,-1
1513230566625555,2,-2,-4,-2,-2,1,-1,0
1513230566625555,-1,0,0,-12,-4,-3,-1,-1
1513230566638576,-2,-3,-5,15,3,-1,1,-1
1513230566638576,0,1,-1,-2,-1,0,0,-1
1513230566647070,1,-1,1,-3,-6,-1,-1,0
1513230566647070,-1,7,1,2,-2,-1,-1,-1
1513230566662584,4,-1,7,-5,-1,0,-1,-1
1513230566662584,-3,-4,-9,1,2,0,-2,-1
1513230566663081,1,-2,-3,-1,-1,-2,0,0
1513230566663081,-1,-1,-4,-1,0,-1,-1,-1
1513230566684596,-2,0,-1,4,-3,-1,0,0
1513230566684596,-1,-1,1,-2,-2,-1,-1,-2
1513230566685597,0,-1,0,-2,-1,1,-1,0
1513230566685597,-5,-1,3,4,2,0,-1,-2
1513230566698609,-4,-1,0,4,1,-3,0,-1
1513230566698609,0,2,1,-11,-2,-1,-2,0
1513230566706613,-2,-2,-4,-2,0,-1,0,1
1513230566706613,3,-2,1,8,-3,-2,-2,-1
1513230566723139,-2,-3,-2,3,-1,1,0,-1
1513230566723139,-1,0,-1,-10,-2,0,-1,0
1513230566723626,-8,-1,1,-2,0,-1,0,-1
1513230566723626,-1,-2,-1,-1,-2,-1,-1,0
1513230566746140,0,-1,-4,-6,-4,-2,-2,-2
1513230566746140,-2,0,1,7,0,0,1,0
1513230566747167,1,-3,-1,3,-1,0,-1,-1
1513230566747167,-2,-2,-2,-2,2,-1,0,-1
1513230566758691,-2,0,-4,1,-2,-3,-2,-1
1513230566758691,-1,-2,-3,-2,-3,-2,-3,-2
1513230566766656,0,-1,2,-14,-5,-1,-3,-2
1513230566766656,4,-3,-4,16,-1,-2,-3,-1
1513230566782688,0,-2,-5,-10,4,1,0,0
1513230566782688,-3,-2,-2,-2,-1,-1,0,0
1513230566783167,0,0,-2,-3,1,-2,0,0
1513230566783167,-7,2,3,-3,-3,0,1,-1
1513230566805181,0,-2,0,11,-3,-3,0,-1
1513230566805181,0,-2,-2,-1,2,-2,-1,0
1513230566806682,-1,0,-1,0,-1,-2,-2,-1
1513230566806682,-2,0,-2,-3,-1,0,-1,-1
1513230566818701,-2,-1,-2,-1,-2,-2,-1,-1
1513230566818701,3,1,-1,-1,-3,-2,-1,1
1513230566826707,-3,-7,-4,3,-3,-2,0,-2
1513230566826707,-1,-2,-1,-4,0,-1,-1,-1
1513230566842708,-2,1,1,1,-1,0,0,-1
1513230566842708,1,-1,-1,-2,-1,0,-1,-2
1513230566844226,2,-2,-5,-3,-1,-2,-2,0
1513230566844226,-1,-3,-1,-1,1,-1,-2,-1
1513230566865255,-1,-3,-2,-5,-2,-1,-1,-1
1513230566865255,-3,1,1,-11,-3,-2,-1,1
1513230566866756,1,1,0,1,0,-1,-1,1
1513230566866756,-2,-3,2,20,2,-1,1,-1
1513230566878779,1,0,-8,-15,-1,1,0,1
1513230566878779,-7,-2,4,10,-1,-2,-2,-1
1513230566887781,-2,0,-4,-6,0,1,-1,-2
1513230566887781,-1,-1,-2,-7,-2,0,-1,0
1513230566902783,1,-2,-1,-2,-2,-1,-2,-1
1513230566902783,3,1,-1,6,-1,-1,0,-1
1513230566904282,0,2,1,4,-3,-2,-1,0
1513230566904282,-1,-4,-6,-13,-1,-2,-2,-2
1513230566924796,4,0,-1,3,1,0,-1,0
1513230566924796,-2,-2,-1,-4,-3,-2,0,-1
1513230566926798,1,-2,1,6,0,-2,-1,-2
1513230566926798,-1,0,1,-2,-2,-2,-1,-1
1513230566938806,-2,-2,0,-14,-2,-2,-1,1
1513230566938806,0,1,-3,3,-2,-1,-2,1
1513230566947813,-3,0,0,1,-2,-2,-1,0
1513230566947813,2,-2,-1,0,-2,-1,-3,-1
1513230566962338,-1,-1,2,7,-2,-3,-1,-4
1513230566962338,-4,-3,1,-8,-3,0,-1,-2
1513230566964338,-2,-3,-4,6,-1,0,0,-3
1513230566964338,0,3,-5,-14,0,0,-1,0
1513230566984863,-3,1,-1,-1,-1,-2,-1,1
1513230566984863,1,0,2,0,-3,-4,0,-2
1513230566986852,0,-2,-1,9,4,0,-1,-2
1513230566986852,1,-5,-4,-3,-1,-1,1,1
1513230567015364,-1,3,3,-1,-2,-1,-1,-3
1513230567015364,0,-3,-3,-4,-1,-2,-2,-3
1513230567016862,-2,1,1,-2,-3,0,0,0
1513230567016862,0,1,0,7,-1,-3,1,0
1513230567022366,-2,-1,-3,-3,-1,1,-2,0
1513230567022366,1,-3,-3,-3,-1,-1,-1,-3
1513230567023867,-1,-3,-3,-9,-4,-3,-1,-3
1513230567023867,-1,1,2,9,0,-1,0,-3
1513230567044882,-2,-5,-6,-3,-1,-3,-2,-2
1513230567044882,-3,-1,-4,2,1,0,-2,-1
1513230567047383,-5,-2,0,-3,-1,0,-1,-1
1513230567047383,-1,-1,2,-3,-4,-1,-4,-2
1513230567067397,-1,0,-1,2,3,1,0,-1
1513230567067397,0,2,0,8,2,-1,-2,1
1513230567068898,1,2,-4,-8,-2,-1,-2,0
1513230567068898,1,-4,-3,3,-3,-3,-2,2
1513230567082949,-2,-3,2,-12,-1,-1,0,-4
1513230567082949,-3,-2,-1,1,-2,-2,0,-2
1513230567084410,0,0,0,1,-2,-1,-1,-2
1513230567084410,0,0,-2,4,-1,0,-1,-3
1513230567105424,0,-3,-3,-7,-2,-1,-1,-2
1513230567105424,1,1,0,0,-2,0,-1,0
1513230567106947,0,0,0,1,0,-1,-1,0
1513230567106947,-1,-2,-2,-5,-2,0,-2,0
1513230567127452,-3,0,0,7,-2,0,-1,-2
1513230567127452,-2,-2,0,-5,0,0,0,-2
1513230567128941,-2,-2,-1,1,-1,-2,-1,0
1513230567128941,-5,6,3,-5,1,-1,-2,-1
1513230567141963,-7,0,1,1,-2,-3,-1,2
1513230567141963,-1,-2,-2,-1,0,-2,-1,-1
1513230567148508,-1,-2,-1,-4,-2,0,-3,1
1513230567148508,-1,-3,-3,-1,-3,-3,0,-3
1513230567165007,2,-1,0,13,-1,-2,-1,-1
1513230567165007,3,-4,-9,-10,1,0,0,0
1513230567171001,0,-2,-2,-2,1,0,0,-2
1513230567171001,-3,2,3,-12,-3,-3,-1,0
1513230567187517,0,1,-2,2,-1,0,-2,-1
1513230567187517,-1,-2,1,4,2,1,-1,0
1513230567189027,2,0,-3,-1,-1,-2,-2,-2
1513230567189027,-3,-4,-3,-3,-2,0,-2,0
1513230567202024,-1,-3,0,1,-2,-3,-1,-1
1513230567202024,-4,1,1,0,-1,-2,0,-1
1513230567208531,-1,-1,-2,-3,-1,-1,-1,0
1513230567208531,-1,6,2,5,0,-2,1,0
1513230567225051,-7,1,3,-3,0,1,1,-1
1513230567225051,-2,-1,-4,-1,1,-1,0,0
1513230567227042,0,1,-1,5,-2,-1,-1,-1
1513230567227042,-1,-4,0,1,0,-1,0,-2
1513230567247577,3,-3,-4,-7,-4,-3,-3,-1
1513230567247577,1,-2,-3,-2,-4,-3,0,2
1513230567249057,-3,-1,0,0,-2,-1,-1,0
1513230567249057,2,-3,-6,-5,0,0,-2,-1
1513230567262076,-1,-1,1,5,0,1,-3,-1
1513230567262076,-1,-1,1,-4,-3,-2,-2,-3
1513230567276090,1,-4,-5,-1,3,1,-1,0
1513230567276090,-2,-1,-7,-9,0,-2,0,-1
1513230567285083,-1,-1,-2,-1,-1,-1,1,-1
1513230567285083,-1,-9,-2,10,-1,-2,-1,-2
1513230567286585,-7,0,2,-7,-1,-1,0,-1
1513230567286585,-4,-2,0,1,-2,0,-2,-2
1513230567307600,2,0,-2,-4,-1,0,-1,-1
1513230567307600,-2,1,0,-3,-1,-1,0,-3
1513230567309109,1,0,0,-2,-3,0,-1,-1
1513230567309109,-1,-3,-1,14,0,-1,-2,-2
1513230567322122,-1,-1,-5,-6,-1,-2,-1,0
1513230567322122,-2,-1,0,-1,-2,1,-1,-1
1513230567328613,0,-1,0,-4,-3,-2,-1,-2
1513230567328613,-2,-2,-1,-7,-4,-2,-3,0
1513230567345128,-1,1,1,-8,-1,1,0,1
1513230567345128,0,1,-4,4,2,1,-2,-2
1513230567347643,-7,1,3,1,-1,-2,-1,-2
1513230567347643,-3,-1,-3,5,3,1,1,-1
1513230567367642,1,-8,-8,-14,-4,-4,-3,-1
1513230567367642,-2,-1,-1,5,0,0,-2,1
1513230567369144,1,-3,-6,-3,0,-1,-1,-1
1513230567369144,0,-1,0,-1,-2,-1,-2,-2
1513230567382171,-5,-2,-2,2,-1,-1,0,-2
1513230567382171,-1,3,2,-8,-3,-2,-1,0
1513230567388678,2,-4,-2,3,-1,-3,1,-2
1513230567388678,-9,0,0,-3,0,0,1,-1
1513230567405167,2,5,2,1,0,0,0,1
1513230567405167,-1,-1,-1,-2,-1,0,-2,0
1513230567406669,1,-1,0,2,-2,0,-2,1
1513230567406669,1,1,2,-1,-1,-1,-1,2
1513230567427201,3,0,3,8,0,0,0,1
1513230567427201,-5,1,-2,-8,-1,-1,0,-3
1513230567433691,-5,3,0,-7,-1,-1,-2,-5
1513230567433691,1,-5,-1,4,-2,-2,-3,0
1513230567441694,1,-1,-3,-5,-2,-1,-3,-2
1513230567441694,-7,-3,1,0,-2,0,-2,-1
1513230567448772,4,-1,-2,-2,-3,-1,-1,1
1513230567448772,4,-2,-2,9,1,0,0,-1
1513230567465271,1,-8,-2,8,1,-1,-1,-1
1513230567465271,1,2,2,-4,-2,-3,1,-1
1513230567466771,-1,-2,0,-2,-1,-3,-3,0
1513230567466771,-3,-2,-1,-10,-3,-2,-1,-1
1513230567487284,-4,-2,-2,-2,-1,-1,-1,-1
1513230567487284,2,-1,1,8,-2,-2,-1,-3
1513230567489286,-1,-1,-7,-11,-1,0,-1,0
1513230567489286,1,-2,2,10,-2,-3,-2,-1
1513230567500795,-3,-1,-4,-11,2,0,0,-1
1513230567500795,0,-1,-1,-6,-4,0,-1,0
1513230567510301,-1,-2,3,3,0,-1,-1,0
1513230567510301,2,-1,-5,-1,-2,0,-1,-1
1513230567524811,0,1,1,0,-1,-1,-3,-2
1513230567524811,-4,-3,2,11,2,-1,-1,0
1513230567526812,-2,-1,-3,-9,0,-1,0,0
1513230567526812,-2,0,-1,-12,-2,-1,1,0
1513230567554832,2,4,-4,0,-3,-2,0,-1
1513230567554832,1,-8,-6,-2,-1,-1,-3,-1
1513230567556847,1,-1,0,3,0,0,-1,1
1513230567556847,-4,0,-1,-4,-1,-2,0,-1
1513230567570344,-5,-1,1,1,-1,0,0,-1
1513230567570344,0,-3,-5,-4,-3,-2,-2,2
1513230567571844,-3,0,5,3,-1,-2,-2,-2
1513230567571844,2,-2,-7,-13,-2,-1,-1,-2
1513230567584869,-3,-1,-1,5,-2,-1,-1,-1
1513230567584869,1,1,-2,-1,1,-2,0,1
1513230567586855,-1,-1,1,2,-1,0,0,-2
1513230567586855,2,1,1,-3,-1,1,-3,0
1513230567607393,-8,-2,0,-2,0,-2,1,-2
1513230567607393,-2,3,3,0,1,2,0,-3
1513230567608871,-1,-2,-1,12,-2,-2,-1,-2
1513230567608871,-2,-3,-3,-11,-1,0,-2,-2
1513230567620879,-3,-9,-1,7,-1,-1,-2,-2
1513230567620879,-1,1,-5,-6,0,1,1,-1
1513230567636393,1,1,-3,0,0,0,-1,0
1513230567636393,-1,-2,-2,0,-2,-1,-3,-2
1513230567644899,2,0,1,-7,-2,-3,-3,0
1513230567644899,1,-1,-2,3,-1,0,0,-2
1513230567647398,1,-3,-2,-3,-1,-1,-1,-1
1513230567647398,-5,-3,2,9,2,0,2,-2
1513230567667412,-1,3,0,-14,-1,-1,-1,0
1513230567667412,-3,-4,4,-4,-3,-1,-1,-2
1513230567668922,-3,2,-4,2,-1,-1,0,-1
1513230567668922,-1,1,0,1,-2,0,-1,0
1513230567680932,5,-2,-4,0,-3,-1,-2,0
1513230567680932,0,-2,-3,-5,-2,-1,-3,-1
1513230567689928,-1,-4,-1,-2,-1,-1,-2,0
1513230567689928,3,-3,-1,-2,-1,-2,0,-1
1513230567704938,-3,5,3,8,-1,1,0,2
1513230567704938,2,0,0,-3,-1,-1,-1,-1
1513230567706442,-1,-1,0,-5,-2,0,-1,-1
1513230567706442,-2,-2,-2,-1,-3,-2,-1,-2
1513230567727955,-4,-4,-3,0,1,-1,0,-4
1513230567727955,-2,1,0,1,-1,-1,-1,-2
1513230567729456,-1,1,-1,0,-1,0,-2,0
1513230567729456,-2,0,-1,-4,-3,-2,0,-1
1513230567740964,-1,2,-3,2,2,1,-2,-3
1513230567740964,-4,11,5,-4,-1,0,0,1
1513230567750029,-1,-4,0,-3,4,0,-2,-2
1513230567750029,-5,-6,-1,-1,0,0,-1,-1
1513230567765017,1,0,-1,-4,-3,-3,-2,-1
1513230567765017,2,-3,-3,-5,-4,-1,-4,-1
1513230567766515,-1,0,-1,11,-1,0,-1,0
1513230567766515,2,0,-3,-4,-1,-1,-1,1
1513230567787543,1,-4,0,6,1,0,-1,-1
1513230567787543,-3,-2,-1,-1,-1,-2,0,-2
1513230567789043,3,-4,-6,-8,-2,-4,-1,0
1513230567789043,-3,1,4,3,0,-1,-1,-3
1513230567801042,-1,-1,-4,-5,2,-2,0,0
1513230567801042,0,-1,-1,2,-1,0,-1,0
1513230567810049,-2,0,1,6,-3,0,0,0
1513230567810049,4,9,-2,-1,2,0,0,2
1513230567832582,-1,0,-1,-3,-4,0,-1,-1
1513230567832582,-1,-2,0,-6,-2,-2,-1,-2
1513230567834083,-1,0,1,2,0,-1,-2,-3
1513230567834083,2,-1,-3,-5,-1,0,-1,0
1513230567847587,-1,1,-2,1,-3,-1,-2,-2
1513230567847587,0,-1,-4,2,2,-1,0,-2
1513230567849084,0,-1,-1,-3,-4,0,0,-1
1513230567849084,-7,3,0,-2,-1,0,-1,-2
1513230567861082,1,-2,-2,-4,0,-1,-1,1
1513230567861082,0,-2,-1,1,-3,-1,-1,0
1513230567870089,0,2,-3,-5,0,-2,-1,-1
1513230567870089,0,-2,-2,-1,0,1,-1,0
1513230567885101,-4,5,5,2,0,-2,-1,-1
1513230567885101,-1,-2,-4,2,1,1,-1,0
1513230567886601,-2,-5,1,3,-2,0,0,0
1513230567886601,0,-1,2,-5,-4,-2,0,-1
1513230567915121,-6,-2,-3,-7,-1,0,-2,-1
1513230567915121,-2,1,-1,4,1,-2,-2,0
1513230567916621,0,-3,-4,-5,-1,0,-1,-1
1513230567916621,1,-4,-2,-1,-3,-3,-2,-1
1513230567930130,-2,-3,-1,-1,-2,0,0,-1
1513230567930130,-1,-2,-2,-3,-3,-1,-1,-2
1513230567931633,-4,-1,-2,-2,-1,-2,0,-1
1513230567931633,-2,-2,1,17,1,0,-2,-1
1513230567945143,-1,-4,-3,-8,-1,-2,-1,-1
1513230567945143,-3,-1,1,3,0,-1,-3,-1
1513230567947682,1,2,0,-13,-3,-1,0,-1
1513230567947682,-2,-5,-3,2,-3,-1,-1,-2
1513230567967657,0,0,1,4,0,-2,-1,-3
1513230567967657,1,-3,-2,0,-2,1,1,-2
1513230567969159,-2,-1,0,1,0,0,-1,-2
1513230567969159,1,0,-1,-3,0,-2,0,0
1513230567989690,-2,-1,1,-2,-1,0,0,-2
1513230567989690,0,-1,-1,-8,-1,0,-1,-2
1513230567991692,0,-1,0,4,2,0,-2,0
1513230567991692,-2,-1,-5,-7,0,0,-1,-1
1513230568004695,2,-1,-1,1,-1,-1,0,0
1513230568004695,-3,-2,-1,2,-2,-2,-2,-2
1513230568006696,-3,-2,-3,-5,-1,-2,-1,0
1513230568006696,-5,2,3,4,-1,1,0,0
1513230568027199,1,-1,-5,-4,0,-1,-1,0
1513230568027199,-1,0,-3,-4,-2,-3,0,0
1513230568033704,-1,-8,-3,-7,1,-2,-2,-4
1513230568033704,-1,0,-2,6,0,-1,0,-2
1513230568049739,0,-4,-1,0,-2,0,-2,-1
1513230568049739,-7,0,1,3,4,0,-1,-1
1513230568051733,0,-1,0,-1,-4,-3,-1,0
1513230568051733,4,-3,-3,-15,-1,0,-2,-1
1513230568064750,-1,-1,-1,2,0,0,1,0
1513230568064750,0,-5,1,3,-1,-2,-2,-2
1513230568071242,-3,1,-4,-7,0,-1,-1,0
1513230568071242,0,-2,-1,3,0,0,0,-1
1513230568087758,1,0,-2,2,-2,-3,-1,-2
1513230568087758,1,-1,-1,-1,-1,-3,-1,0
1513230568089251,0,2,2,0,-3,-1,-2,-3
1513230568089251,-1,-5,-4,-2,-4,-2,-3,0
1513230568110260,-2,0,0,0,-1,0,0,-2
1513230568110260,2,-2,-7,-5,-4,-3,0,0
1513230568112260,-4,2,1,2,1,1,0,-2
1513230568112260,-1,-4,-1,4,-1,-1,-1,-2
1513230568124286,0,1,1,-4,1,-1,0,1
1513230568124286,-2,-9,-6,-4,-2,-2,-3,-2
1513230568131291,-1,0,-1,1,-1,0,-1,-1
1513230568131291,-3,-1,-2,-2,1,1,-1,0
1513230568147307,-7,1,2,-8,-2,-1,-2,-1
1513230568147307,0,2,0,7,0,-2,-1,-1
1513230568148785,-2,-1,-2,-1,-2,0,0,-1
1513230568148785,-1,-1,3,5,-2,-3,0,0
1513230568169813,-2,-6,-7,-7,0,0,-2,-3
1513230568169813,0,-2,-1,-4,-4,0,-1,-1
1513230568171811,0,-3,2,4,-1,0,0,-2
1513230568171811,-4,4,-2,-3,0,-1,1,-1
1513230568192325,1,0,-2,3,-4,-2,-1,-1
1513230568192325,-2,0,0,-10,-1,0,-1,0
1513230568193817,1,-1,-3,-7,-1,-2,-1,0
1513230568193817,1,-1,-1,1,0,0,-1,-1
1513230568207361,0,0,-1,2,-1,-1,-2,0
1513230568207361,-4,-8,-4,0,-1,0,0,-3
1513230568208860,-3,1,0,3,-1,0,-1,-1
1513230568208860,-1,0,-1,-8,-2,-2,0,0
1513230568229877,0,-3,0,3,0,-1,-1,-1
1513230568229877,-1,0,0,-4,-2,-1,-1,-2
1513230568231375,-3,-2,0,-1,-2,-3,-1,0
1513230568231375,2,-3,-5,-7,-1,-1,-2,-1
1513230568244384,-2,-1,2,3,0,1,0,0
1513230568244384,1,1,-1,-4,0,0,-1,-1
1513230568250892,-2,-2,0,-2,-2,1,-3,-2
1513230568250892,-1,0,-1,7,0,-2,-1,-2
1513230568267414,0,2,2,2,-2,-3,-3,0
1513230568267414,-1,0,-3,0,2,1,0,1
1513230568268902,0,-2,-1,-1,-1,-3,0,-2
1513230568268902,-3,-3,-2,-5,-1,-1,-2,1
1513230568289917,0,-1,-2,3,1,0,-1,-1
1513230568289917,-1,2,0,0,-1,0,0,0
1513230568291428,-2,6,0,-4,2,-1,-1,3
1513230568291428,0,-1,0,-4,1,1,0,-2
1513230568304477,-1,-2,-1,-4,-4,0,-2,0
1513230568304477,3,2,1,1,-1,-1,-2,0
1513230568310983,0,0,-2,6,-1,-1,-1,1
1513230568310983,-2,-2,0,2,-2,-1,1,-2
1513230568327494,-5,-1,-4,-8,0,-1,0,-2
1513230568327494,0,-3,-1,0,-1,-1,-1,-2
1513230568328995,0,-3,-1,-1,-1,-2,-1,-1
1513230568328995,-6,-1,2,4,-2,-1,-1,-3
1513230568350035,2,-4,-2,4,-1,-1,-2,-3
1513230568350035,1,0,-1,-5,-1,0,0,0
1513230568351511,1,-3,-4,0,-2,-2,-2,-3
1513230568351511,0,-1,1,-10,-1,-1,-1,0
1513230568364058,0,-1,-1,-7,-5,-2,-2,-2
1513230568364058,-5,3,0,13,3,0,-1,0
1513230568371025,-1,-1,-1,-2,-2,-1,-1,0
1513230568371025,0,-3,-2,-4,-2,-3,0,-1
1513230568388036,-6,8,7,3,1,0,1,1
1513230568388036,-5,-1,-2,-2,0,-2,-1,-1
1513230568389548,0,-2,0,1,-4,-1,-3,-2
1513230568389548,-1,0,-5,-4,-1,-1,-1,-2
1513230568410131,3,-3,-3,-1,-3,-2,0,1
1513230568410131,-1,0,2,-5,-4,-2,0,-1
1513230568411611,-2,-2,1,10,6,1,1,-1
1513230568411611,-1,-1,-2,-15,-2,0,0,0
1513230568424102,-1,-3,-3,0,1,0,-1,-1
1513230568424102,0,-3,-2,0,0,1,-1,0
1513230568431106,5,-3,-2,-9,-4,-2,-2,2
1513230568431106,-1,1,1,6,0,0,-2,-1
1513230568447630,0,-1,-3,-4,0,0,-1,-1
1513230568447630,0,-2,-2,-6,-1,0,-2,-1
1513230568449131,-2,-1,-3,0,-1,1,-1,-2
1513230568449131,0,0,1,10,1,-1,-1,-2
1513230568470635,0,-2,-2,6,-3,-2,0,-2
1513230568470635,-2,1,-3,-8,-1,0,-1,-1
1513230568472137,-5,-1,1,-7,-2,-1,0,-1
1513230568472137,-8,-7,-1,0,-1,-1,-1,-3
1513230568483663,0,0,0,0,0,-3,-3,0
1513230568483663,1,-2,2,0,-3,-3,0,-1
1513230568492650,0,-3,-5,1,1,-1,0,0
1513230568492650,-2,-4,-2,2,2,1,0,-1
1513230568507174,0,-4,-2,-5,0,-2,-2,0
1513230568507174,0,0,1,0,-5,0,-1,-2
1513230568513667,-2,0,1,6,0,-2,-1,0
1513230568513667,2,2,1,4,-1,-2,0,0
1513230568530187,1,-3,-7,-8,-4,0,-2,-3
1513230568530187,0,1,-1,-5,-1,-3,-2,-1
1513230568531688,3,1,1,7,-3,-1,-2,-1
1513230568531688,2,1,-4,-7,2,-1,-2,-2
1513230568543689,-3,-2,-1,-6,-1,-1,1,-1
1513230568543689,3,-5,-6,-5,-3,-3,-2,-1
1513230568552692,-3,-2,-1,-3,-2,-2,-1,-2
1513230568552692,1,-1,1,-2,-3,-2,-2,0
1513230568567714,1,-2,0,2,1,0,-1,0
1513230568567714,-3,-8,-4,-2,-1,-2,-1,-1
1513230568569216,-1,2,0,1,-1,-1,-2,-2
1513230568569216,1,2,-2,-4,-4,0,-1,-2
1513230568589730,-3,-3,-2,0,0,-1,-3,-2
1513230568589730,-4,-2,1,3,0,0,1,-2
1513230568591729,-2,1,-1,-9,-3,-2,-1,-2
1513230568591729,-4,0,0,-5,0,0,0,-1
1513230568603728,5,-1,-3,5,-2,-2,-1,0
1513230568603728,-1,3,-1,3,1,-1,-2,0
1513230568612744,0,0,-2,-4,0,0,0,1
1513230568612744,-3,-1,0,-9,-2,-1,-2,0
1513230568627246,-3,-4,-1,15,1,1,0,-1
1513230568627246,1,0,-5,-2,-2,0,-1,0
1513230568628745,-5,-3,-3,-6,0,-3,0,-4
1513230568628745,1,-1,-1,-3,-3,-1,-2,0
1513230568650283,-3,-1,1,-2,0,1,0,-3
1513230568650283,-1,1,0,5,0,0,-1,0
1513230568651762,1,-2,-2,-5,0,-2,-2,-1
1513230568651762,-2,0,1,6,-2,-3,-2,0
1513230568663773,-2,0,0,0,-1,-2,-1,0
1513230568663773,0,-1,-3,-6,-3,-3,2,-2
1513230568672790,0,-3,-5,0,2,2,0,-1
1513230568672790,-1,-3,-1,3,0,-1,0,-2
1513230568687297,-3,0,1,-10,-2,-2,0,-2
1513230568687297,-1,-1,2,-2,-2,-2,-2,0
1513230568689289,-9,1,5,7,0,1,-1,-3
1513230568689289,2,-9,-8,0,0,-1,-1,0
1513230568709823,2,-1,-5,-4,-3,-3,-1,-1
1513230568709823,-2,-1,-1,-4,-1,-1,0,-2
1513230568711820,-1,-2,-3,-6,-3,0,0,-1
1513230568711820,-1,1,5,5,-3,-1,-1,0
1513230568723830,-4,0,-1,-1,0,1,-1,-2
1513230568723830,-1,-1,1,3,1,1,-3,-1
1513230568732819,2,-3,-5,2,0,-2,0,-1
1513230568732819,2,-1,-3,-4,-2,-1,0,-2
1513230568747330,0,-2,-1,-7,-3,0,-1,0
1513230568747330,-4,2,1,8,2,-2,-2,-2
1513230568748831,-1,0,2,0,-3,-1,1,0
1513230568748831,-1,-1,-4,-2,-1,-1,0,0
1513230568770348,-3,0,2,5,-1,-1,0,-2
1513230568770348,-1,-1,-2,-11,-2,-1,1,1
1513230568771347,-1,-1,-2,4,0,-1,-2,0
1513230568771347,1,1,0,-5,-1,-3,-2,-1
1513230568783865,0,-1,-5,-3,-2,-1,-2,0
1513230568783865,1,-3,0,-2,-1,0,-2,-4
1513230568798388,0,-1,-2,-8,-3,-1,-1,0
1513230568798388,-2,-2,1,2,-2,-2,-2,1
1513230568807372,-8,6,6,-4,-1,1,-1,1
1513230568807372,-3,-5,-2,1,-3,-1,-2,0
1513230568809379,-1,0,-2,2,2,0,0,1
1513230568809379,-3,1,0,4,0,-1,-1,-2
1513230568837475,0,-3,-2,-3,0,-1,-2,-3
1513230568837475,0,-2,1,0,0,0,0,-1
1513230568838991,-1,0,2,-1,-3,-1,-3,-1
1513230568838991,0,1,-1,-5,-3,0,-1,-1
1513230568843477,3,-3,-4,2,-1,0,-1,1
1513230568843477,-1,0,1,-2,-1,0,-1,-1
1513230568852485,-2,-2,-4,-2,2,0,1,-2
1513230568852485,0,0,-2,-5,-1,-2,-1,-1
1513230568874999,2,-3,-2,-5,-3,-2,-2,0
1513230568874999,-1,-1,-1,3,-1,-2,-2,-1
1513230568876500,-1,-2,0,-5,-3,-2,-2,-1
1513230568876500,-2,-3,-4,-5,-1,0,-1,-2
1513230568890011,-1,-1,-2,4,-1,-2,0,-1
1513230568890011,0,0,-1,-4,-1,0,0,-1
1513230568891521,0,-1,-2,0,-3,-1,-3,-1
1513230568891521,2,4,2,1,2,1,-1,0
1513230568912589,-2,-3,-1,0,0,0,-1,-3
1513230568912589,1,-2,-5,-1,-2,0,-1,0
1513230568914090,2,4,2,-11,-4,-2,-2,-1
1513230568914090,0,-5,-2,10,1,0,-1,0
1513230568927591,3,-4,-3,-20,-3,-3,-3,-2
1513230568927591,0,0,1,16,2,-1,-1,-3
1513230568929096,-2,-3,0,-4,-4,0,1,-2
1513230568929096,-3,-1,-3,-5,-2,-1,0,0
1513230568950130,-2,1,2,1,-1,-1,0,-2
1513230568950130,1,0,-5,-10,-2,-2,-1,1
1513230568951607,-3,-1,-2,2,3,0,0,-1
1513230568951607,-2,-1,0,3,-3,-1,-1,-1
1513230568972634,-2,-2,0,-7,-1,0,0,-1
1513230568972634,-1,-1,-1,1,-2,-3,-1,0
1513230568974136,-1,-2,-1,2,-2,-2,0,0
1513230568974136,-3,-1,-3,-2,-1,-2,-1,0
1513230568987145,-3,-2,0,-2,-3,-2,0,-1
1513230568987145,-2,-3,0,-3,0,-1,1,-1
1513230568993637,0,-8,-5,-5,-2,-1,-2,0
1513230568993637,-3,1,2,-2,-2,-1,-2,-3
1513230569010152,2,0,-4,6,-1,-1,-3,1
1513230569010152,-6,-4,-2,-2,-1,-1,-1,-2
1513230569011654,-2,1,0,-1,-1,-1,-1,-1
1513230569011654,2,-2,-3,-3,-1,-1,0,-2
1513230569032180,3,-2,-2,2,0,0,-2,-2
1513230569032180,0,-2,-4,-5,-3,0,-1,-1
1513230569034181,1,1,1,2,-2,-1,-2,0
1513230569034181,-4,-2,0,-1,-1,0,-1,-2
1513230569047175,-3,1,-2,0,2,-2,-2,-2
1513230569047175,0,2,-2,3,-1,-1,-2,-1
1513230569053719,1,-1,-4,-11,-4,-2,0,-1
1513230569053719,-4,-1,-1,10,-1,-1,0,-2
1513230569070229,-3,5,2,2,2,-1,1,0
1513230569070229,0,0,3,6,-1,-1,-1,-3
1513230569071731,-2,0,-7,-16,-3,0,-1,0
1513230569071731,0,0,0,-2,-2,-2,-1,0
1513230569092247,-3,-4,1,3,-1,-1,0,0
1513230569092247,0,-2,1,-1,-1,0,-1,2
1513230569094247,-8,-1,6,6,-1,-2,-1,-2
1513230569094247,-1,-1,-2,-6,0,0,-1,0
1513230569106768,-2,-2,-1,2,-2,-2,0,-1
1513230569106768,2,-2,-3,-5,-1,-2,-2,1
1513230569113785,-1,-4,1,5,-1,-2,-1,-1
1513230569113785,-1,-2,-2,-5,-2,0,-3,0
1513230569130274,-1,0,0,0,-1,2,-1,0
1513230569130274,-2,-1,-2,-2,-1,-2,0,-2
1513230569131775,1,-1,-2,0,1,-2,-2,-1
1513230569131775,0,-1,1,5,-3,-2,0,-2
1513230569152291,-2,-1,-3,-5,3,0,-3,-2
1513230569152291,0,-1,-1,-7,-2,-2,-2,-2
1513230569154291,-3,-2,-4,3,1,0,-2,-2
1513230569154291,1,8,4,13,1,1,0,0
1513230569166799,0,-1,-3,-9,-1,-3,-2,-1
1513230569166799,-3,1,-1,1,-3,-2,1,0
1513230569173803,0,0,0,3,0,-2,-1,0
1513230569173803,3,-8,-6,-14,-3,-3,-3,-2
1513230569189815,-1,-2,-1,0,-2,0,-1,1
1513230569189815,-1,3,0,-1,-1,-1,-2,0
1513230569191816,0,0,-1,-3,-1,-1,-1,-2
1513230569191816,0,-4,-5,-1,-1,-2,-1,-3
1513230569219843,-3,0,0,2,-1,-2,0,-1
1513230569219843,-2,-3,-1,-4,-2,-1,-1,-1
1513230569221840,1,1,-1,1,-1,-1,-1,1
1513230569221840,0,1,-2,-5,-2,-3,-1,0
1513230569226849,0,0,-2,2,-1,0,0,-3
1513230569226849,-2,0,2,6,0,-1,-1,-1
1513230569233845,3,-2,-4,-7,-1,-1,-2,-3
1513230569233845,-2,-1,-1,0,0,1,0,-1
1513230569249930,-4,-2,-1,0,-2,-1,1,-1
1513230569249930,-3,0,-2,-5,-1,-2,-1,-1
1513230569251400,-1,-1,1,3,-2,-1,-1,-2
1513230569251400,-1,-10,-6,1,0,-1,1,-1
1513230569272472,0,-5,-4,8,0,0,-2,-1
1513230569272472,0,0,-2,-6,0,0,0,-1
1513230569273974,-2,1,0,1,-3,-2,0,-1
1513230569273974,1,-2,-2,-10,-3,-2,-2,0
1513230569286973,-2,0,2,1,-1,-1,-2,-1
1513230569286973,-2,-2,-5,4,4,1,0,0
1513230569293480,0,-4,-3,-1,-2,-1,0,-3
1513230569293480,-2,-1,1,4,-1,0,0,-1
1513230569309991,0,0,2,-4,-4,-4,-3,-2
1513230569309991,0,-1,-4,-19,-2,0,-1,0
1513230569311490,-2,-2,-2,4,1,-1,-1,0
1513230569311490,-1,1,-1,4,1,-1,-1,-1
1513230569332522,0,-3,3,4,-1,-1,0,-1
1513230569332522,-1,0,0,0,-1,-3,-1,0
1513230569334027,-5,0,2,3,-1,-1,1,-1
1513230569334027,-1,1,-2,-4,0,-2,-1,-1
1513230569346531,-2,0,-2,-6,0,-2,-2,-1
1513230569346531,-3,0,0,4,-1,-1,-2,-2
1513230569353523,-2,0,0,-4,-2,-1,-1,0
1513230569353523,-3,-6,-2,0,-1,-1,-1,-2
1513230569370040,0,-1,-2,-2,-2,-2,-2,-2
1513230569370040,2,-1,-1,-5,-1,1,-1,-2
1513230569371543,0,-1,-2,11,-2,0,-1,0
1513230569371543,-2,-2,-1,-4,-1,0,-1,-1
1513230569393048,0,-1,-3,1,-1,0,0,-1
1513230569393048,3,-1,-1,-11,-1,-2,-1,2
1513230569394553,-3,0,0,-3,0,1,1,-1
1513230569394553,-1,3,1,-3,-2,-1,0,-2
1513230569406058,4,0,-2,1,-3,-1,-1,-1
1513230569406058,0,-2,1,-1,0,-1,0,-1
1513230569415129,-3,-1,-3,-12,-1,-3,0,-1
1513230569415129,1,0,0,4,-3,-2,-1,0
1513230569430173,-1,-1,-5,-1,2,1,-1,0
1513230569430173,0,-1,0,7,-1,0,-3,-1
1513230569431617,1,-1,-1,-1,-1,0,-1,0
1513230569431617,-2,0,0,-6,-2,0,0,-1
1513230569452131,-1,-1,0,-8,-4,-1,-1,0
1513230569452131,-1,-1,3,12,-2,0,-2,-2
1513230569454133,0,-3,-4,3,6,3,-2,-1
1513230569454133,-1,-1,0,0,-2,-1,-1,-3
1513230569466142,-2,-2,-1,-1,-1,-1,0,-1
1513230569466142,-3,-2,-2,-4,-3,-2,0,-2
1513230569475151,-2,-2,0,-2,-3,-3,-1,0
1513230569475151,0,3,1,2,2,1,0,0
1513230569497163,-3,2,-1,-3,-1,-2,-1,-1
1513230569497163,-4,-1,-1,-8,-2,-3,-1,-2
1513230569499168,1,-2,-2,4,-2,-1,-3,0
1513230569499168,-1,-1,-3,-2,2,0,-1,0
1513230569512182,-1,-2,-2,7,0,0,0,-1
1513230569512182,3,1,-3,-4,-2,-2,0,0
1513230569514178,-5,0,1,0,-1,-3,-1,-2
1513230569514178,-3,-1,-1,-5,-2,-1,-1,-2
1513230569526197,0,0,1,-3,-2,0,-1,-1
1513230569526197,-1,-5,-4,-2,0,1,0,1
1513230569535191,0,-1,0,-1,-2,-1,-1,0
1513230569535191,1,1,-2,-2,-3,-2,-1,0
1513230569549700,-1,-3,1,-4,0,-1,-2,-2
1513230569549700,-3,-1,-2,4,0,0,0,-2
1513230569551702,-1,0,-1,-8,-2,-2,-1,1
1513230569551702,-1,0,-3,-6,0,-1,-1,-3
1513230569571716,-1,-10,-3,-1,-3,-3,-3,-2
1513230569571716,-3,5,3,1,0,0,-2,-1
1513230569580223,0,-2,-1,0,-2,-1,-1,-3
1513230569580223,-2,-3,-1,2,-2,-3,-1,-2
1513230569586236,-1,-3,-4,-6,0,0,0,-2
1513230569586236,-1,-4,-3,6,0,-1,-1,-1
1513230569595247,-1,2,0,-4,-2,-2,-2,0
1513230569595247,-1,0,1,5,0,-2,0,1
1513230569609745,2,0,-1,0,-1,-2,-1,1
1513230569609745,-3,-1,-1,-3,0,0,-1,-1
1513230569611744,1,0,-1,0,0,0,-2,-1
1513230569611744,1,-2,-5,-5,-1,-1,0,-1
1513230569632273,1,-1,-2,-4,-3,-1,0,0
1513230569632273,0,-1,1,1,-2,-3,0,-3
1513230569633760,-2,-2,-2,-1,0,-2,0,-1
1513230569633760,2,0,1,-8,-1,-2,-3,-1
1513230569646769,-1,1,-3,-1,-1,1,-1,-1
1513230569646769,0,-1,1,0,-1,-2,0,0
1513230569655306,-2,-3,-1,-3,-2,-1,1,0
1513230569655306,-2,-2,0,10,-2,-1,-1,-2
1513230569669826,-2,2,1,4,-1,0,2,-1
1513230569669826,0,6,-1,-6,3,3,-2,1
1513230569671830,1,1,-2,1,-2,-1,0,0
1513230569671830,4,-3,-3,5,0,-1,-1,-1
1513230569692333,-2,2,1,-4,-2,-2,-1,0
1513230569692333,-8,-1,2,0,-2,-2,-2,-3
1513230569693834,0,-3,1,4,0,0,-2,-3
1513230569693834,-2,1,-2,-4,0,-1,0,-1
1513230569714852,-2,-2,-1,-1,-1,-1,-2,0
1513230569714852,0,-4,-2,-3,0,-2,1,1
1513230569716851,2,-1,-2,-10,-3,-1,-2,0
1513230569716851,-4,-2,0,-5,-1,-1,-1,-1
1513230569730363,-1,-1,-2,1,0,0,0,0
1513230569730363,-2,-1,2,2,-1,0,-1,0
1513230569736364,-2,0,1,5,0,-1,-2,-2
1513230569736364,-3,-2,0,5,4,0,0,-1
1513230569752379,-1,1,-4,-6,-1,-2,-2,-1
1513230569752379,2,-3,-3,-1,-2,-1,-2,-1
1513230569753877,-1,1,1,-4,-3,0,0,0
1513230569753877,-4,-8,-7,-1,1,0,-1,-3
1513230569774910,-1,-2,2,-2,-1,-2,-2,-2
1513230569774910,-2,-5,-4,-1,-1,-1,0,0
1513230569776912,4,1,0,-8,-5,-1,-2,0
1513230569776912,-3,-3,-3,1,-1,-1,-2,-1
1513230569789917,-1,-1,-1,1,-1,-1,-1,-2
1513230569789917,-5,0,1,-4,-1,-1,-2,-1
1513230569791404,-3,-4,-3,5,1,1,0,-3
1513230569791404,1,3,0,-4,-3,-1,1,0
1513230569812421,-2,-2,-2,-2,1,-1,-1,-1
1513230569812421,4,-2,-3,-2,-3,-2,0,0
1513230569813919,-2,-1,-1,-3,-3,-1,0,-2
1513230569813919,-7,1,2,1,0,2,0,0
1513230569834938,-1,-2,1,2,-2,1,-2,-2
1513230569834938,1,-2,-3,-4,-1,-1,-1,-1
1513230569836435,-2,1,-2,9,3,-1,-2,-1
1513230569836435,1,3,2,-3,-2,-2,-2,0
1513230569857450,-1,-2,-3,-1,-2,-1,-2,-2
1513230569857450,-1,-1,0,-5,-1,-2,-1,0
1513230569858951,2,4,0,-2,1,0,0,1
1513230569858951,-1,-1,1,-4,-3,0,-1,-1
1513230569872461,-1,-1,-3,2,1,-1,0,-1
1513230569872461,-2,1,2,0,-3,-1,0,-1
1513230569873962,0,-4,-1,6,2,0,-2,-2
1513230569873962,-3,1,-5,-13,-1,-2,-2,-3
1513230569895477,-1,2,0,-2,-1,-2,-1,0
1513230569895477,-1,-2,-3,2,-2,-2,0,-4
1513230569897000,-3,-2,-1,-4,-3,-2,1,0
1513230569897000,-2,-1,-3,0,-3,-3,-1,-2
1513230569910029,-2,-2,-2,-3,-1,0,-2,-4
1513230569910029,0,-2,-2,-4,-1,0,-1,-1
1513230569911528,0,-4,-3,3,2,-2,0,1
1513230569911528,1,1,1,2,-1,-1,-2,2
1513230569932565,-3,0,0,-3,1,-1,1,1
1513230569932565,0,0,-1,-1,-3,-3,-2,-1
1513230569934063,0,-1,-2,-9,-2,-3,-3,-1
1513230569934063,2,-3,-3,-4,-1,-1,0,0
1513230569955059,-5,-7,-3,0,-2,-1,-1,-1
1513230569955059,-2,-2,1,-2,1,0,-1,-2
1513230569956560,-2,-2,0,-6,-4,-1,-1,0
1513230569956560,1,-2,0,8,-1,0,-2,-2
1513230569970083,4,0,-2,-6,-4,-4,-2,-2
1513230569970083,1,-2,-4,1,-2,-1,-1,0
1513230569971571,-1,-3,-3,-3,-4,0,-2,0
1513230569971571,-2,-3,-1,-3,-2,-1,-2,-2
1513230569992585,-6,0,3,0,-2,0,-1,-1
1513230569992585,-3,-1,-2,-2,2,-1,-1,-1
1513230569994086,0,1,-3,-3,1,0,0,0
1513230569994086,-1,-3,-1,-2,-4,-2,-2,0
1513230570015110,1,-1,-2,6,1,1,-2,0
1513230570015110,1,-2,-1,-4,-2,-2,-3,-2
1513230570016611,-3,-2,-3,1,0,-1,-1,-2
1513230570016611,-1,-1,1,0,-1,-1,0,0
1513230570029117,-1,0,0,-3,0,-2,-1,-2
1513230570029117,-3,-2,1,-2,-2,-1,-1,0
1513230570036128,-1,0,0,6,2,-1,0,-1
1513230570036128,0,-1,-1,0,-3,-1,-1,-3
1513230570053140,1,0,2,-1,0,-1,-1,0
1513230570053140,1,3,-1,3,2,1,0,0
1513230570054630,-3,-6,-1,-3,0,0,-1,-2
1513230570054630,0,1,-2,0,-1,-2,1,-1
1513230570075166,1,-2,-1,-2,-2,0,-1,-1
1513230570075166,-2,-4,-1,2,1,0,0,-2
1513230570076657,1,-1,-2,-1,-2,-1,-2,-1
1513230570076657,-1,0,1,0,-2,-1,-1,0
1513230570089154,1,-3,-7,-7,-4,-2,-1,-1
1513230570089154,-1,0,-2,6,1,0,0,0
1513230570096168,-3,0,1,-3,-1,-1,-1,-2
1513230570096168,-1,-1,-3,-7,0,-2,-2,-1
1513230570112170,0,-2,-3,-6,-1,-3,-1,1
1513230570112170,-1,0,1,5,-3,-2,-2,1
1513230570114174,0,0,0,1,1,-2,-4,-2
1513230570114174,1,-1,-5,-5,1,0,-2,-2
1513230570135188,-2,-1,-2,-3,-3,-1,-1,-2
1513230570135188,1,-1,-3,-12,-2,-1,-1,-3
1513230570137188,-4,-2,2,10,-1,-1,0,0
1513230570137188,-2,-2,-2,-2,-1,0,-2,-2
1513230570149196,-1,-6,-3,5,0,0,-3,-3
1513230570149196,-3,-3,0,-11,-2,0,-2,-1
1513230570156201,0,2,-1,-2,-1,0,0,-2
1513230570156201,-2,-1,-1,2,0,0,-2,0
1513230570172244,-1,-1,0,-2,0,-2,-1,0
1513230570172244,0,-2,0,4,-1,-2,-2,-2
1513230570173745,0,-2,-6,-5,-2,-1,-1,0
1513230570173745,1,-1,0,-2,-2,-2,-2,-2
1513230570194751,0,2,2,3,0,3,2,1
1513230570194751,3,-2,-4,0,-1,-1,-2,3
1513230570196252,-1,2,-1,-9,-3,-2,-2,0
1513230570196252,-3,-1,-1,9,0,0,0,0
1513230570209260,-1,-3,-2,4,0,-1,-1,-3
1513230570209260,-1,-1,-4,-6,-1,-2,-1,-1
1513230570216265,-1,-3,-2,-5,-2,-3,-1,-2
1513230570216265,-3,-1,2,-3,0,-3,0,-4
1513230570232291,3,-1,-1,5,-2,-3,-3,-2
1513230570232291,-2,1,1,-6,-3,0,-1,-2
1513230570234299,0,-2,-5,8,0,0,0,0
1513230570234299,-6,-1,-2,-2,0,2,0,1
1513230570254792,-2,5,3,-2,0,0,-1,2
1513230570254792,0,0,0,3,-2,-2,0,-1
1513230570256794,-1,-2,1,-5,-3,-1,0,-2
1513230570256794,2,-3,-2,-2,-2,-1,-2,-2
1513230570269348,-4,-2,0,-4,-2,-1,0,0
1513230570269348,-3,0,-1,5,0,-1,-1,-1
1513230570275852,4,-2,-2,-1,-2,0,-1,0
1513230570275852,-2,0,-1,-4,-3,-1,-1,-1
1513230570292366,-1,-1,-1,-2,-2,-2,-1,0
1513230570292366,-2,0,0,-3,-1,-2,-1,-1
1513230570293866,0,-3,-1,5,0,-1,-2,-2
1513230570293866,1,-2,-2,-4,-1,-1,-2,-2
1513230570315425,-2,-1,1,-4,-2,-2,-2,-2
1513230570315425,-3,-4,2,6,-1,1,1,-1
1513230570316921,-6,-1,-5,-8,0,1,-1,0
1513230570316921,-1,1,2,1,-2,-2,-1,3
1513230570328433,-2,0,1,-7,1,2,-2,-3
1513230570328433,-2,-3,-4,7,-1,-1,-1,0
1513230570337428,-4,8,5,1,0,-1,0,0
1513230570337428,-2,-1,-2,-2,-1,-2,-1,-1
1513230570352459,0,-3,-4,1,-2,-1,-1,0
1513230570352459,-1,4,2,-2,2,0,2,-1
1513230570353938,-1,-4,-3,-2,-3,-1,-2,-1
1513230570353938,1,-2,0,3,-3,0,-1,0
1513230570374964,-1,1,0,-7,1,0,-1,1
1513230570374964,1,-1,-1,-5,-4,-1,-2,-1
1513230570376454,-4,-1,-2,-1,2,0,0,-2
1513230570376454,0,-1,1,7,-1,-1,1,1
1513230570388473,0,-5,-6,-1,-1,-2,-1,1
1513230570388473,0,-1,4,-3,-4,0,-1,0
1513230570397469,0,-1,-7,3,-1,-1,-2,-1
1513230570397469,-2,0,-7,-6,-1,1,-2,-1
1513230570412482,0,3,6,4,-2,-1,-1,-1
1513230570412482,0,-4,-16,-15,0,-1,-2,-1
1513230570413981,2,7,14,4,-3,-1,-1,1
1513230570413981,-2,-1,-6,-9,1,1,-1,-2
1513230570435014,-1,-2,-7,3,0,0,-1,-1
1513230570435014,-2,-2,-2,0,-1,0,0,-1
1513230570436506,-1,-2,-4,-13,-3,-2,1,-1
1513230570436506,-4,-5,3,15,3,-2,-1,-3
1513230570448507,1,-1,-13,-7,-2,-1,-2,-2
1513230570448507,-1,1,6,-11,-4,-3,-1,-1
1513230570465016,-3,-5,-1,12,-1,-2,-1,-4
1513230570465016,-1,-1,-1,-5,-1,-1,-1,-1
1513230570472522,-2,-1,-6,-3,1,0,0,-2
1513230570472522,-2,-5,5,0,-4,-4,-4,-3
1513230570474023,4,-5,-9,-3,0,1,1,0
1513230570474023,-3,-1,3,2,-1,0,1,-1
1513230570495048,-4,-1,-4,6,1,-2,-1,-2
1513230570495048,0,1,0,-8,0,-1,-1,1
1513230570496538,-3,-7,3,-3,-4,-3,-2,-1
1513230570496538,3,8,11,-8,-4,-2,-4,-2
1513230570508592,-2,-2,-8,4,4,1,0,1
1513230570508592,-2,4,18,24,-4,-2,1,-2
1513230570517576,-1,-13,-21,-13,6,2,0,1
1513230570517576,7,2,-12,-8,-3,-1,-1,0
1513230570532586,1,-1,14,-22,-5,-3,-2,-2
1513230570532586,-4,-4,-10,-18,-1,-1,-1,0
1513230570534087,0,6,9,11,-3,-1,-2,-1
1513230570534087,0,-8,8,-10,-2,-1,-1,1
1513230570555101,-1,3,21,20,-1,0,-1,-4
1513230570555101,1,2,-5,13,2,2,1,-2
1513230570556602,2,3,6,-10,-2,-2,-1,-2
1513230570556602,-4,-4,5,-2,-2,-2,1,0
1513230570568611,0,0,-3,-26,-11,-4,-3,-1
1513230570568611,-4,-3,-1,21,11,2,1,-2
1513230570577617,-3,2,-12,-5,6,2,-1,-1
1513230570577617,-1,2,26,11,0,0,-1,1
1513230570592643,-1,-3,-19,-9,-2,0,0,-1
1513230570592643,1,2,-5,7,-8,-3,-3,-2
1513230570594138,2,0,-6,-23,-8,-2,-3,-1
1513230570594138,-3,-4,31,6,6,1,-1,-2
1513230570622149,0,-1,-14,10,1,-1,0,0
1513230570622149,-2,-1,15,-2,1,0,0,0
1513230570624150,-1,-2,-7,11,-1,-1,0,-2
1513230570624150,2,-1,-23,-1,0,1,0,1
1513230570628672,-2,-4,21,11,-4,-3,0,-1
1513230570628672,1,-1,-52,-6,2,-2,-3,-2
1513230570637663,-4,-6,13,-5,-6,-4,-5,-3
1513230570637663,-1,1,-32,-19,-4,0,0,-1
1513230570652203,-4,-5,6,25,5,-2,-3,-2
1513230570652203,-2,-5,-14,-5,-1,2,0,-1
1513230570654201,-3,-1,14,-21,-3,2,2,1
1513230570654201,-2,5,2,-5,4,1,3,2
1513230570674729,-3,-6,-44,13,1,-1,-1,0
1513230570674729,-1,-2,15,3,-1,-1,-1,0
1513230570676730,-8,-4,-13,8,-5,-4,-1,-1
1513230570676730,-3,-3,-29,17,7,-2,-1,-3
1513230570689226,-2,5,22,-16,-6,0,1,-2
1513230570689226,-5,-10,-16,4,-1,-5,-6,-3
1513230570697748,2,3,-17,-7,5,2,0,1
1513230570697748,1,2,30,12,-2,0,0,-2
1513230570712245,1,-2,-39,-14,-3,-3,1,-1
1513230570712245,3,8,15,-7,2,3,2,1
1513230570713743,-5,-5,-6,37,-4,-4,-2,-2
1513230570713743,-4,-15,4,-33,-14,-10,-9,-2
1513230570735309,0,-7,-13,3,6,1,-3,-2
1513230570735309,-1,-5,10,-13,-9,-4,2,-1
1513230570740795,1,7,-2,-9,-2,-3,-1,0
1513230570740795,-3,3,-8,14,0,-2,-1,-1
1513230570748814,-4,-6,17,5,-15,-10,-10,-3
1513230570748814,-1,3,-4,-20,19,9,7,0
1513230570757818,-2,-6,20,7,-2,-1,-3,-1
1513230570757818,3,19,12,3,1,2,4,2
1513230570772317,-4,-4,9,9,5,1,-1,-2
1513230570772317,-5,-1,-30,-17,-9,-5,-2,-2
1513230570773818,1,-10,11,1,-1,0,-1,-1
1513230570773818,0,2,-7,-4,-10,-2,-5,-2
1513230570794856,-3,9,26,5,5,3,1,-2
1513230570794856,5,4,-6,23,6,3,2,3
1513230570796834,-2,-3,15,-16,-9,-2,-1,-3
1513230570796834,0,-7,-26,11,11,2,0,-1
1513230570817349,2,-6,-14,-29,-5,-1,-1,1
1513230570817349,3,5,30,19,-9,-8,-7,0
1513230570818862,2,1,-20,0,-4,-4,-4,-1
1513230570818862,-7,-26,-37,-2,1,-1,-1,-1
1513230570832359,2,8,15,-35,-1,0,-4,-1
1513230570832359,1,15,49,1,0,0,2,-2
1513230570833861,0,-17,-50,-8,-5,-2,3,1
1513230570833861,-7,-2,-9,9,-9,-5,-6,-9
1513230570855375,6,-11,-9,-3,4,2,1,2
1513230570855375,-4,2,-2,-6,-8,-5,-9,-1
1513230570860901,-2,2,50,15,6,1,0,1
1513230570860901,0,0,0,-5,-1,2,4,-2
1513230570876890,-3,-9,-11,2,0,0,2,1
1513230570876890,-1,5,5,-22,-11,-3,-1,0
1513230570883396,-4,0,-3,24,12,1,-3,-2
1513230570883396,4,-7,-2,-11,-2,-2,2,4
1513230570892417,-8,7,2,-13,-5,0,2,1
1513230570892417,-1,-2,-3,10,4,-1,-2,-5
1513230570893903,4,12,19,-8,-3,-2,-2,-2
1513230570893903,5,1,5,-10,-4,-3,0,2
1513230570914938,-3,19,-2,15,-1,-2,-2,2
1513230570914938,-17,-26,-15,-26,-3,-1,-6,-8
1513230570916419,-7,4,-12,7,0,0,2,-6
1513230570916419,-13,-16,10,-2,-2,-3,-5,-5
1513230570937447,10,-2,-1,-5,-9,-2,0,-4
1513230570937447,5,3,-7,30,13,5,3,4
1513230570938947,-3,5,-6,-17,2,1,1,1
1513230570938947,3,7,4,-8,-4,0,-1,-1
1513230570951953,0,1,-3,-3,2,-1,0,1
1513230570951953,4,-5,3,0,-6,-2,3,3
1513230570965955,-18,-11,-8,4,6,3,0,2
1513230570965955,-9,-8,4,10,1,0,-5,-5
1513230570974961,5,0,8,-4,-3,-2,-1,8
1513230570974961,17,15,-10,-5,-3,1,-2,-1
1513230570976462,23,-12,-1,-2,-5,-5,-3,-10
1513230570976462,-41,-1,4,0,3,1,1,-4
1513230570997476,46,18,48,4,-5,-3,-2,2
1513230570997476,-51,-7,-38,2,6,4,12,5
1513230570998987,-4,-25,15,-10,-10,-11,14,-4
1513230570998987,-16,-5,-64,-5,-2,-3,-34,10
1513230571011489,-7,-13,-21,-7,-3,1,-3,-11
1513230571011489,5,0,28,14,-4,-9,-16,0
1513230571018550,13,21,49,-3,1,4,6,-2
1513230571018550,-26,-2,-2,4,-1,10,9,-10
1513230571035064,-6,-5,19,16,5,-6,0,1
1513230571035064,17,10,-33,-20,-5,3,21,-3
1513230571036550,-34,-9,-31,-9,-2,-3,-15,8
1513230571036550,67,14,-14,-9,-1,-8,-5,1
1513230571065073,48,45,20,40,-3,6,22,13
1513230571065073,-75,-54,28,-9,11,-3,-5,-20
1513230571067092,14,10,-7,-17,-14,-1,-28,1
1513230571067092,-16,11,6,18,18,3,2,5
1513230571071596,-42,-8,-25,16,-9,-2,2,-5
1513230571071596,55,3,-20,-6,6,2,0,0
1513230571078613,-35,1,5,8,-2,-1,12,-4
1513230571078613,6,5,-5,-16,-10,-7,-6,3
1513230571094624,-17,-34,-15,-18,-4,-18,-2,-8
1513230571094624,7,11,12,6,-3,18,33,19
1513230571096639,-27,-12,-27,-6,2,4,1,8
1513230571096639,34,0,39,18,0,11,40,3
1513230571117137,-54,-18,-18,-16,1,-2,-33,-15
1513230571117137,41,-18,18,-9,-11,-13,-15,3
1513230571119139,15,31,-25,13,8,9,-2,23
1513230571119139,-16,-20,-17,9,0,-3,1,-9
1513230571131653,-31,1,23,-15,6,8,2,-16
1513230571131653,-17,18,-1,7,-1,2,-1,16
1513230571138642,86,42,-26,-9,-1,6,-2,-5
1513230571138642,-71,-61,-15,-9,-10,-19,-27,-32
1513230571162162,55,7,14,-4,0,-2,1,9
1513230571162162,-62,-23,23,-6,-8,-4,-14,10
1513230571164164,-6,35,7,32,10,0,23,-7
1513230571164164,18,-27,-14,-8,-16,-17,-63,2
1513230571184685,-6,-6,-10,-18,13,4,-16,-27
1513230571184685,5,6,-12,-7,-7,-10,-21,15
1513230571186687,-30,-30,-4,9,-3,-5,13,-5
1513230571186687,46,32,64,-17,4,37,58,10
1513230571191190,37,24,-40,12,9,14,-26,-1
1513230571191190,-6,10,-2,7,2,9,-26,-27
1513230571199746,-14,-10,-9,-26,-3,-5,4,-2
1513230571199746,-16,16,54,54,17,3,20,11
1513230571216267,-17,-8,-48,-31,-6,1,45,44
1513230571216267,1,13,18,-2,-8,-4,25,-22
1513230571221771,10,-25,-8,17,3,-5,-59,-30
1513230571221771,-27,17,21,-7,2,1,10,-2
1513230571237273,-3,-9,-49,-25,-13,-13,-1,1
1513230571237273,1,8,-8,30,9,7,11,-17
1513230571238773,-26,-32,-14,-40,-8,2,23,-10
1513230571238773,113,61,53,38,5,4,16,71
1513230571250785,-56,-34,16,-6,-6,-9,-63,-68
1513230571250785,-26,-17,-8,43,3,1,6,3
1513230571259789,55,27,22,-29,-2,-2,11,13
1513230571259789,17,46,-25,-26,-2,6,33,31
1513230571282308,14,-26,-3,15,-6,-9,31,28
1513230571282308,-22,-54,-17,-22,3,9,-27,-14
1513230571283809,29,45,18,7,-3,-10,-45,4
1513230571283809,-47,-12,-2,-10,-4,0,85,-10
1513230571297329,-78,-7,5,17,1,16,0,-17
1513230571297329,-6,-28,-27,-13,-8,-14,-4,6
1513230571298816,23,-26,12,10,5,7,-50,-35
1513230571298816,-27,-21,-21,-8,-6,-10,0,-1
1513230571310849,36,42,41,13,5,9,34,28
1513230571310849,70,52,-17,0,3,-8,-44,-13
1513230571320831,-54,-31,21,6,-12,-4,41,18
1513230571320831,-50,-62,-31,-25,-8,-13,-45,-22
1513230571334354,-5,-13,3,11,-5,-5,-11,-12
1513230571334354,2,7,-19,-34,4,9,32,44
1513230571334851,-2,26,45,32,9,1,27,-20
1513230571334851,17,1,-11,-5,-6,-3,-17,17
1513230571356869,32,28,20,-4,-1,-7,-59,-39
1513230571356869,-39,-19,-20,-2,-5,-3,35,18
1513230571357370,-35,-49,-23,10,-4,-8,-41,-23
1513230571357370,1,45,-11,-34,-2,3,-19,-43
1513230571379886,-16,-51,-18,-2,0,-8,-9,16
1513230571379886,4,18,35,7,-2,-9,-27,-13
1513230571380874,-9,1,4,24,3,5,20,17
1513230571380874,-24,-6,-22,-9,-1,-3,43,3
1513230571393883,45,32,35,2,2,0,1,32
1513230571393883,-54,-2,-6,-2,0,-2,-68,-27
1513230571394895,-21,-14,-25,-6,-7,-8,19,-26
1513230571394895,-8,-80,-7,0,-6,1,-21,-22
1513230571416409,-6,1,0,-16,-3,-3,27,14
1513230571416409,51,27,5,2,-1,6,57,29
1513230571417410,48,50,7,8,5,10,14,47
1513230571417410,-20,-26,-22,-11,-5,-6,-18,-25
1513230571440416,-10,11,11,25,9,4,3,-3
1513230571440416,31,-7,7,-16,-2,2,24,-3
1513230571440917,-7,-3,-11,-28,-7,-5,-11,5
1513230571440917,49,42,18,28,7,8,-4,10
1513230571453926,3,-11,13,-2,-3,0,36,18
1513230571453926,-37,-40,-34,-15,-11,-7,-12,-2
1513230571454928,14,-15,7,0,7,9,47,-27
1513230571454928,-16,33,16,19,2,-8,-47,-17
1513230571476442,-68,-44,-43,-16,-6,-5,-15,-9
1513230571476442,61,49,20,7,2,-1,26,21
1513230571477454,36,-27,0,-10,0,2,-10,-10
1513230571477454,-25,-29,0,2,5,-1,-19,-15
1513230571499958,4,28,18,17,9,2,23,-6
1513230571499958,23,-18,10,15,-5,-8,-31,-23
1513230571500459,-39,6,-14,-25,-5,6,58,56
1513230571500459,46,30,-14,0,7,4,-1,5
1513230571522474,13,11,26,5,1,2,-40,-9
1513230571522474,-2,-15,1,18,3,5,53,55
1513230571522982,-1,50,-14,-23,-9,-16,-79,-24
1513230571522982,24,-37,-17,-15,-11,-4,17,4
1513230571536487,2,-38,-17,-6,1,1,-3,-14
1513230571536487,9,20,35,26,7,8,29,-4
1513230571537486,-52,-6,-15,-5,-8,-19,-84,-48
1513230571537486,64,1,-40,-6,0,3,32,30
1513230571560023,2,-34,-13,-17,-11,-7,-15,-4
1513230571560023,-12,-19,6,-17,-1,-6,-4,-6
1513230571560510,1,-8,8,17,5,5,32,13
1513230571560510,37,67,14,1,2,-1,-61,10
1513230571574022,-66,-39,-10,19,2,0,30,41
1513230571574022,-5,-57,-23,-32,-12,-8,-39,-63
1513230571575023,-4,30,25,0,8,5,19,20
1513230571575023,34,5,-5,0,-3,-1,-20,-10
1513230571596530,62,33,-1,13,1,-2,15,4
1513230571596530,9,11,36,13,5,10,59,42
1513230571597527,3,-32,-26,-20,-8,-7,-76,-33
1513230571597527,-32,18,28,6,0,-2,6,-6
1513230571620057,10,25,1,-15,-2,-3,-24,-28
1513230571620057,10,-41,-25,-6,-6,-6,2,-2
1513230571620544,-5,18,15,31,6,7,29,-4
1513230571620544,22,1,-5,-18,-5,-9,3,-7
1513230571634056,42,-1,3,1,3,7,59,-43
1513230571634056,-50,-17,-26,-2,-3,-11,-62,-15
1513230571635054,22,-24,1,-6,-3,-2,14,0
1513230571635054,-51,10,25,3,-4,-1,28,11
1513230571656617,32,19,18,11,-1,2,14,19
1513230571656617,-7,0,-4,-12,-3,-3,23,-11
1513230571657603,11,-33,-27,13,6,7,29,27
1513230571657603,-43,-8,25,5,-1,-1,-2,-7
1513230571679617,37,26,8,-15,-5,-2,-12,11
1513230571679617,63,38,-14,0,3,6,15,-16
1513230571680635,-63,-50,18,-1,-2,-8,-25,13
1513230571680635,-10,22,-30,10,6,5,70,28
1513230571694127,-47,-57,0,-21,-8,-11,-107,-51
1513230571694127,-10,31,-30,-1,-1,-3,-6,-4
1513230571695129,67,-5,-17,-2,-6,-8,25,15
1513230571695129,16,-12,30,12,4,4,-19,-33
1513230571717145,28,25,-15,-5,-1,1,10,9
1513230571717145,-32,3,6,-3,-8,-3,3,17
1513230571718145,-1,-4,-15,-3,6,7,-10,-1
1513230571718145,-30,-26,16,11,-2,-4,26,17
1513230571740172,6,1,-24,-21,-2,0,-31,-28
1513230571740172,25,-7,3,-10,-4,-4,10,5
1513230571741161,4,45,13,1,-8,-13,-7,-34
1513230571741161,-26,-85,-38,-11,-1,-1,-29,-38
1513230571754183,9,34,6,5,-4,5,101,57
1513230571754183,-5,44,8,-4,2,-5,-60,-49
1513230571755171,13,26,12,-1,1,4,-7,3
1513230571755171,-50,-19,-5,10,-9,-12,-18,-30
1513230571776685,-6,12,3,6,2,0,-16,16
1513230571776685,-15,-10,18,-3,-8,-10,-12,4
1513230571777686,23,15,-18,-20,-1,3,31,23
1513230571777686,-1,0,8,0,-4,0,10,15
1513230571799724,-6,20,-17,-12,-1,-4,-1,19
1513230571799724,1,7,11,-1,5,3,18,-23
1513230571800704,6,-15,32,33,-1,-8,-8,15
1513230571800704,-11,46,10,-4,-2,-2,-12,-11
1513230571814215,-97,-109,-56,-33,-9,-10,-32,-55
1513230571814215,22,14,13,22,6,2,24,7
1513230571815219,-27,-22,-13,-19,-10,-5,-31,-10
1513230571815219,-11,6,6,12,5,-5,-45,-43
1513230571836733,0,44,31,28,3,7,54,28
1513230571836733,-54,-9,2,-6,6,7,-22,-12
1513230571837729,-12,-1,-25,-29,-10,-10,15,-4
1513230571837729,61,29,-25,-28,-5,2,11,48
1513230571859793,17,7,9,19,7,0,-2,-56
1513230571859793,-7,2,16,1,1,-7,-84,-6
1513230571860757,-33,-18,-13,0,1,5,33,18
1513230571860757,12,13,29,9,6,1,-47,-7
1513230571874255,6,23,-4,21,4,3,22,20
1513230571874255,-5,-19,25,-11,-2,-2,23,-11
1513230571874755,12,9,-19,1,-6,-5,-49,-26
1513230571874755,6,-37,-38,-27,0,-4,-7,5
1513230571896771,-15,20,33,15,5,1,-2,8
1513230571896771,14,1,-27,-21,-13,-5,26,21
1513230571897281,-4,-25,29,15,2,3,-38,-44
1513230571897281,-11,-17,-34,-32,-10,-5,28,10
1513230571919787,18,2,21,18,1,-4,-36,13
1513230571919787,13,-24,-20,-6,2,10,63,16
1513230571920793,-12,-20,-24,-22,-5,-6,-58,-7
1513230571920793,12,-9,7,20,7,8,22,20
1513230571934800,12,-15,-8,-8,-7,-4,13,18
1513230571934800,-3,1,-4,13,1,-3,-34,-13
1513230571935298,-14,-34,6,11,5,6,39,7
1513230571935298,1,37,18,9,0,-1,0,11
1513230571965320,-9,0,-21,-21,-4,-2,1,5
1513230571965320,8,63,19,19,5,-1,-4,10
1513230571966320,-14,-50,33,37,1,6,26,0
1513230571966320,4,-11,-65,-59,-10,-7,-18,-19
1513230571979833,12,-13,5,12,0,1,84,26
1513230571979833,-23,7,-19,-11,-6,-4,-74,-21
1513230571980833,5,34,26,9,5,-3,6,-16
1513230571980833,-17,-4,29,14,-7,0,25,-3
1513230571994844,7,-19,-12,-14,-6,-6,-23,-2
1513230571994844,11,11,12,10,0,0,21,17
1513230571995344,5,-1,-30,-26,-1,2,28,20
1513230571995344,-20,-40,-15,2,-9,-10,-46,-42
1513230572016855,8,-4,-2,-12,-2,1,-6,-22
1513230572016855,-18,-1,2,13,0,3,27,24
1513230572017356,22,32,-12,-11,-4,-3,-26,11
1513230572017356,-22,-2,10,14,-1,-2,12,11
1513230572039871,-19,-10,-13,-15,-2,-1,20,6
1513230572039871,-7,-19,-4,2,-4,-8,-74,-12
1513230572040372,36,32,14,1,2,4,25,15
1513230572040372,-3,3,-28,3,5,3,29,24
1513230572054439,-29,35,1,-1,-7,-12,-97,-51
1513230572054439,16,9,15,-6,9,6,30,-3
1513230572054939,-13,-43,-6,5,-5,-2,34,22
1513230572054939,38,7,22,4,5,3,-2,21
1513230572076468,-1,-41,-8,8,5,2,37,14
1513230572076468,4,12,-12,-18,-1,1,-38,-3
1513230572077456,-57,5,3,3,-1,-4,-20,-15
1513230572077456,-11,-20,-11,0,-9,-6,8,-38
1513230572099974,15,15,19,-2,9,12,-4,41
1513230572099974,-7,-25,-11,-10,-7,-6,44,-5
1513230572100471,15,42,-5,1,0,-2,-8,-11
1513230572100471,-18,-41,-5,5,1,2,10,-21
1513230572113982,-9,14,-1,5,1,1,-30,-21
1513230572113982,16,-11,28,6,-1,2,39,28
1513230572114984,10,9,-42,-16,-7,-1,51,12
1513230572114984,21,10,12,5,2,-9,-95,-17
1513230572136998,5,32,13,14,2,4,8,9
1513230572136998,-5,-25,-16,-2,-2,-1,1,-1
1513230572137999,-15,2,-27,-12,-3,-3,29,-5
1513230572137999,-1,8,17,0,-7,-3,13,-1
1513230572167531,-1,-34,-29,-2,-7,-10,-20,-14
1513230572167531,21,-7,-22,-20,-3,-1,15,-7
1513230572168020,35,30,35,11,6,5,14,25
1513230572168020,-12,-23,-5,-1,2,-1,-37,-13
1513230572174036,5,17,30,7,-4,-1,-10,-13
1513230572174036,19,10,-12,-5,7,4,2,10
1513230572175028,4,-35,-2,3,-1,3,22,16
1513230572175028,24,20,-23,-19,-2,-3,3,0
1513230572196802,-5,-4,9,8,1,6,50,19
1513230572196802,-19,6,-19,-2,-6,-10,-72,-37
1513230572197303,5,39,56,9,0,0,19,16
1513230572197303,-8,6,-14,18,4,7,-35,12
1513230572219829,-11,0,-43,-66,-13,-4,-5,-15
1513230572219829,-34,-20,-32,-22,-12,-11,-14,-29
1513230572220319,-37,-16,3,1,1,-4,-18,9
1513230572220319,6,4,36,18,3,3,74,37
1513230572234332,13,24,-20,8,-2,-4,-62,-39
1513230572234332,-30,-29,17,-3,-6,-10,14,7
1513230572234829,-2,31,3,10,5,-1,-33,-27
1513230572234829,-8,-15,-5,-14,-6,0,50,20
1513230572256845,-15,-14,25,10,4,-1,5,37
1513230572256845,11,-8,1,14,-2,2,-20,-41
1513230572257348,-43,-14,-23,-25,-5,-8,-15,2
1513230572257348,8,20,-6,9,4,0,-27,-33
1513230572279874,17,-17,5,5,-2,-2,11,6
1513230572279874,2,42,31,6,-1,-2,12,8
1513230572280863,11,-17,-23,-11,0,7,37,14
1513230572280863,-5,0,12,3,-1,0,-1,18
1513230572293383,-5,-6,2,6,0,0,22,-19
1513230572293383,-30,-2,-18,13,3,1,5,30
1513230572301877,31,-15,0,-2,0,-1,-2,0
1513230572301877,36,35,21,-11,0,-3,-22,-9
1513230572316415,-36,-30,0,1,-2,-1,-16,-6
1513230572316415,-14,-26,-7,0,0,1,26,12
1513230572317390,3,3,1,8,0,0,-4,4
1513230572317390,-20,19,12,-9,-2,-1,-10,-1
1513230572339914,10,-11,-33,-8,-4,-11,22,-5
1513230572339914,11,-4,7,-3,0,6,-5,-31
1513230572340406,-6,18,22,3,1,-1,-29,-15
1513230572340406,-9,-11,-11,-1,-4,3,65,4
1513230572353914,36,10,-16,0,5,1,-5,-1
1513230572353914,-41,-5,-2,-4,0,3,44,19
1513230572361422,-15,-50,-24,16,0,-4,-25,-26
1513230572361422,5,10,14,-10,1,4,-27,5
1513230572376462,0,8,1,-12,-5,-7,37,2
1513230572376462,39,2,-20,-1,-2,2,-25,25
1513230572377462,2,3,35,-1,0,-1,-8,-32
1513230572377462,-13,-5,-29,-2,-2,-1,6,5
1513230572400048,-41,-47,-9,14,2,1,10,-3
1513230572400048,12,35,44,-12,-2,-7,-59,-26
1513230572400532,-18,-25,-15,-9,-6,-10,-22,-9
1513230572400532,8,40,55,19,13,10,18,6
1513230572413551,14,10,-3,-7,-1,3,23,-14
1513230572413551,-19,-34,-42,10,2,0,5,-3
1513230572422066,21,17,14,6,-1,3,34,13
1513230572422066,-83,-17,-19,13,0,-8,-32,-19
1513230572436580,-15,3,53,-7,-1,4,27,40
1513230572436580,10,-28,-45,1,-6,-5,-32,-35
1513230572437559,3,24,-6,-7,-1,6,39,33
1513230572437559,35,-6,-16,-17,-4,-5,-8,-33
1513230572460075,-4,29,-1,2,-2,-5,-22,-12
1513230572460075,-6,-9,17,3,3,5,39,21
1513230572460575,-30,-75,5,7,-1,-3,4,6
1513230572460575,-21,-31,-20,-22,-13,-11,-34,-16
1513230572474085,16,8,13,-6,-3,1,-9,8
1513230572474085,16,30,16,7,9,8,32,20
1513230572481589,5,12,-30,-3,-1,-3,-27,-23
1513230572481589,28,5,11,3,-1,-1,30,17
1513230572497126,-18,-34,-2,15,-1,-3,-38,-9
1513230572497126,4,0,1,-20,-4,-3,-4,1
1513230572498102,43,25,3,-14,-3,-2,34,1
1513230572498102,-21,-30,11,16,0,0,18,-16
1513230572520117,42,27,-6,-14,2,3,-7,14
1513230572520117,-40,-21,-23,9,-11,-12,1,-4
1513230572520618,-15,3,-10,-5,2,-1,-20,-21
1513230572520618,16,-28,-9,-5,-1,3,18,28
1513230572534139,16,21,3,9,4,1,-36,-27
1513230572534139,40,21,18,11,1,-2,13,-12
1513230572549138,-22,-30,-14,-25,-8,-5,-18,1
1513230572549138,-10,26,14,13,0,-5,-34,10
1513230572556643,-22,-32,-34,-21,-8,-3,49,-9
1513230572556643,16,20,1,-2,3,2,4,18
1513230572557653,-2,29,10,-6,-11,-9,-1,8
1513230572557653,30,29,20,-3,2,3,-13,-32
1513230572579696,13,-43,-32,-16,-5,0,-6,21
1513230572579696,2,45,-4,-4,-6,-7,-1,2
1513230572580696,-31,-54,-10,-5,-9,-8,17,-20
1513230572580696,-4,7,0,11,5,0,-22,-11
1513230572593706,8,8,2,8,1,-4,-79,-14
1513230572593706,-10,-8,-15,-10,-9,-5,1,15
1513230572601756,2,42,5,2,11,16,37,35
1513230572601756,-5,-24,4,-2,-11,-14,-17,-10
1513230572616761,1,10,28,13,6,-5,-12,-10
1513230572616761,3,-25,-11,-13,-7,-6,10,-6
1513230572617262,43,43,12,8,5,3,-1,12
1513230572617262,-17,5,-11,-17,-8,1,72,28
1513230572639768,-33,-33,-22,-5,-3,-4,-34,-45
1513230572639768,8,2,43,20,9,-4,-73,-33
1513230572640769,16,3,21,3,-2,-4,-21,-12
1513230572640769,19,2,-14,-3,1,6,25,10
1513230572653281,-10,1,20,24,1,-2,4,-5
1513230572653281,4,-20,-32,-24,0,5,2,-9
1513230572661784,-44,19,-4,14,-1,-5,-4,-9
1513230572661784,60,2,-3,-3,1,5,7,29
1513230572676809,-28,11,-3,-24,-8,0,75,38
1513230572676809,15,-1,22,22,7,5,-33,-20
1513230572677311,13,0,11,-4,-8,-4,-53,8
1513230572677311,-23,-2,-18,-4,1,-5,10,-4
1513230572707334,8,47,27,13,6,4,12,10
1513230572707334,1,11,4,5,1,0,27,-2
1513230572708333,5,-15,-16,-8,-6,-3,18,-27
1513230572708333,-39,-33,-33,-19,-9,-3,-1,-16
1513230572722343,26,-4,3,4,0,1,44,29
1513230572722343,-6,2,0,-9,-2,-6,-30,11
1513230572723343,-11,-22,13,-3,-2,1,-4,-20
1513230572723343,16,15,5,23,3,-1,-18,-3
1513230572736852,17,18,5,-4,2,1,-27,-19
1513230572736852,-50,-49,-8,-16,-4,2,47,25
1513230572737354,18,32,6,-10,2,2,20,7
1513230572737354,-54,-71,-39,-6,-11,-11,-32,5
1513230572759869,-26,-19,-1,3,7,2,48,-3
1513230572759869,24,11,6,5,-1,4,-2,7
1513230572760371,13,9,0,9,5,5,-6,13
1513230572760371,19,20,5,-3,-2,-6,-69,-29
1513230572782429,-3,2,2,-30,-15,-10,-48,-6
1513230572782429,9,16,4,10,2,1,6,-14
1513230572782918,-18,-34,-61,-10,-3,-3,5,0
1513230572782918,16,43,22,-9,-7,-5,-3,-1
1513230572804944,-1,-32,-67,0,-1,-3,-28,-7
1513230572804944,-7,6,37,5,3,6,44,-1
1513230572805445,3,31,7,-1,6,-1,-33,-3
1513230572805445,28,-7,9,9,6,12,77,41
1513230572827450,17,36,15,9,-3,-10,-93,-27
1513230572827450,-37,-7,4,-1,3,0,24,1
1513230572827950,30,-25,-5,-5,-2,3,21,4
1513230572827950,-5,17,-2,-4,4,5,42,25
1513230572842461,3,-22,-13,-13,-3,1,-26,-13
1513230572842461,-29,-4,-6,14,-2,-6,-46,-10
1513230572842960,-24,3,32,-7,3,0,-7,1
1513230572842960,2,-31,11,2,3,1,-14,5
1513230572856500,6,6,-40,-5,-1,4,28,11
1513230572856500,13,16,4,3,-6,-16,-42,-4
1513230572857511,2,-24,13,12,-1,-2,-7,7
1513230572857511,-13,-3,-22,-1,0,2,-17,-21
1513230572880027,15,34,44,5,-2,-4,13,-4
1513230572880027,-13,-15,-51,-13,5,12,8,16
1513230572880518,-14,0,-5,-5,-7,-8,-9,-41
1513230572880518,5,6,-3,-8,3,0,-13,-12
1513230572902155,-23,-26,11,9,-2,-3,5,2
1513230572902155,42,35,23,3,2,1,-1,14
1513230572903153,-6,13,-13,5,-1,-1,13,12
1513230572903153,-26,-42,-15,-9,-2,-6,-37,-18
1513230572916662,21,26,-26,-5,-1,2,5,13
1513230572916662,5,3,23,-9,-5,1,40,2
1513230572917163,33,-18,-10,13,3,1,-25,9
1513230572917163,-4,-13,-1,-5,-8,-6,41,1
1513230572939679,-13,21,2,-1,3,2,3,8
1513230572939679,6,-46,-14,-8,-7,-7,15,-3
1513230572940680,-9,-6,-2,1,-3,-2,-23,-22
1513230572940680,-11,16,2,4,3,2,6,-3
1513230572962247,21,37,35,16,3,4,33,-9
1513230572962247,-34,-47,-27,-20,-13,-13,-44,-18
1513230572963244,-15,-3,21,4,4,0,-8,-3
1513230572963244,14,12,-23,-9,-1,-2,5,38
1513230572976735,-1,-26,-3,1,1,1,-34,-12
1513230572976735,-20,-14,24,20,5,6,45,10
1513230572977236,16,44,-4,-4,-6,-9,-42,-17
1513230572977236,-24,-33,-13,-23,-5,-10,-28,-29
1513230573000289,-10,-17,32,20,3,5,37,24
1513230573000289,25,22,-29,-9,0,-3,-38,-29
1513230573001268,-15,-12,18,6,6,9,48,41
1513230573001268,10,11,9,18,-2,-5,-40,-35
1513230573022267,-13,-15,-35,-22,-6,-3,8,9
1513230573022267,-17,-10,-3,-3,-2,-1,-4,-2
1513230573023267,-27,17,9,-1,4,1,15,-6
1513230573023267,-15,8,20,20,3,0,-27,-1
1513230573036799,6,-15,-24,-13,-5,-7,10,-7
1513230573036799,32,43,18,5,2,0,-23,-11
1513230573037277,11,0,-5,-16,-6,-3,30,18
1513230573037277,-22,-61,-22,-7,-5,-6,-26,-31
1513230573059855,-37,-5,-25,-9,-9,-13,-43,-23
1513230573059855,42,21,-12,1,5,7,24,14
1513230573060837,-5,10,-1,-13,-5,-4,-10,-12
1513230573060837,-1,1,4,4,2,6,27,11
1513230573082398,2,-5,28,9,3,2,-2,14
1513230573082398,-3,-10,-20,-8,-4,-5,20,0
1513230573082898,21,20,16,21,-1,-4,-2,-1
1513230573082898,17,22,-10,-28,1,7,58,32
1513230573104927,-19,-10,3,10,2,2,-55,-17
1513230573104927,12,5,6,3,-5,1,30,15
1513230573105424,13,-51,-12,6,-1,-5,0,-9
1513230573105424,4,53,30,9,2,3,6,2
1513230573119924,-12,16,31,13,3,4,29,-1
1513230573119924,-12,-2,-9,-10,-1,4,3,7
1513230573120424,0,-24,-24,-6,0,0,36,15
1513230573120424,-1,-31,17,8,0,-1,-27,-13
1513230573142441,1,5,-30,-4,3,-4,-16,8
1513230573142441,1,16,9,1,-5,-4,-13,16
1513230573142940,3,-31,-37,-29,-9,-5,-6,-16
1513230573142940,-2,18,47,27,6,-3,-46,-20
1513230573156951,-3,-22,-38,-23,-6,-5,16,-3
1513230573156951,-20,-9,4,10,1,-1,9,-16
1513230573157951,0,13,3,-3,-4,-3,-25,15
1513230573157951,16,21,-10,-8,-1,3,20,-2
1513230573179966,24,13,27,3,0,0,2,5
1513230573179966,-30,-30,-16,-18,-10,-8,30,-6
1513230573180467,-22,27,-6,-3,1,-2,-86,-32
1513230573180467,-10,-5,13,10,1,0,14,-5
1513230573202497,14,8,1,-6,-2,-3,3,-10
1513230573202497,12,-1,13,10,6,1,-2,13
1513230573202983,-18,10,-9,-7,-3,1,7,-7
1513230573202983,-5,-17,-23,-6,-5,-3,15,29
1513230573224998,1,28,33,32,2,-3,-7,-2
1513230573224998,-9,-23,-46,-54,-14,-8,-17,-6
1513230573225498,18,-4,24,6,6,1,3,11
1513230573225498,-22,-1,-33,3,-1,-2,-2,-14
1513230573240009,9,1,27,10,5,8,18,32
1513230573240009,-5,21,20,-4,-1,-3,-7,-23
1513230573240509,-9,-51,-26,7,-5,-2,22,-3
1513230573240509,14,49,21,5,5,0,-29,-6
1513230573262526,-16,-17,-17,-19,-5,-3,4,17
1513230573262526,14,-5,7,14,3,-2,-6,-2
1513230573263025,-6,29,-29,-7,-1,-2,-21,-17
1513230573263025,-4,4,22,11,-5,-1,50,5
1513230573276034,25,-10,-14,-16,-3,-2,-8,-8
1513230573276034,15,10,-30,-5,-4,-10,-62,5
1513230573284054,-29,-38,16,16,8,8,47,17
1513230573284054,11,-6,-36,-10,-5,-4,0,8
1513230573299552,-10,-19,0,-12,-4,-5,-40,-23
1513230573299552,1,-8,-7,-6,-3,-3,20,33
1513230573300552,20,11,22,16,5,0,-18,-7
1513230573300552,-4,10,29,10,0,0,5,7
1513230573322567,-10,-4,-3,-10,-1,-1,-15,-17
1513230573322567,-3,-10,8,-9,6,7,-8,-15
1513230573323068,-12,-15,1,7,-1,0,10,-13
1513230573323068,-12,16,-19,-22,-7,-5,-28,1
1513230573336077,3,-12,-14,1,-2,-3,39,21
1513230573336077,3,31,39,16,2,3,16,3
1513230573344083,15,-9,12,10,-2,-3,-20,10
1513230573344083,18,-12,-19,-41,0,4,19,-5
1513230573359594,-4,-13,-7,0,1,3,39,18
1513230573359594,-15,34,4,19,1,-2,-5,-2
1513230573360595,-11,-4,21,-11,4,4,-47,-18
1513230573360595,3,-12,-31,-5,-5,-8,9,22
1513230573382610,-3,5,15,-5,-4,3,10,12
1513230573382610,-4,-14,-11,6,1,-6,-9,-22
1513230573383611,11,74,-19,-6,-3,-1,14,-6
1513230573383611,-24,-33,25,15,6,9,15,0
1513230573396119,-15,4,-14,-6,0,-3,-34,-21
1513230573396119,12,-12,17,15,-1,1,37,15
1513230573404125,10,24,-17,-13,-4,-4,18,-5
1513230573404125,5,33,5,-4,-1,-5,-60,0
1513230573419636,-10,-13,-13,-4,-1,-3,16,-4
1513230573419636,-9,2,12,7,3,4,-10,-13
1513230573420636,1,-25,2,6,-1,-5,7,7
1513230573420636,19,5,-1,11,-3,-3,4,-9
1513230573442152,-4,6,-8,-12,-4,0,37,37
1513230573442152,13,-24,-10,-4,-2,-2,-34,-27
1513230573443153,-18,3,-31,-9,-1,-1,52,7
1513230573443153,-18,-66,33,32,3,-4,-55,-32
1513230573456161,-9,23,-21,-16,-6,-10,-34,0
1513230573456161,-5,-30,-4,-6,1,3,8,5
1513230573465178,8,5,23,13,6,5,19,9
1513230573465178,2,49,-33,-14,-10,-4,23,10
1513230573487183,2,5,13,7,2,-1,7,-15
1513230573487183,13,-11,-5,6,2,1,-5,13
1513230573488687,-9,-14,30,-20,-4,1,6,1
1513230573488687,22,11,-60,2,2,1,46,19
1513230573502194,21,-10,19,17,4,4,-53,-16
1513230573502194,-4,12,-1,-8,-6,-7,11,2
1513230573503695,1,14,-9,-8,-2,-4,-21,-1
1513230573503695,-15,-13,18,-2,-3,2,19,7
1513230573516204,5,16,-7,-7,-3,-8,-17,-34
1513230573516204,-18,-36,12,3,0,-5,-43,-4
1513230573524710,-1,-11,-22,6,-1,-4,-13,-3
1513230573524710,8,35,41,-1,1,-2,-21,-12
1513230573539721,-4,-56,-47,-9,-10,-4,23,-5
1513230573539721,14,19,27,1,-1,1,26,5
1513230573541742,-47,-1,-36,-13,-8,-10,-59,-4
1513230573541742,10,-10,7,0,-2,-4,5,-7
1513230573562240,5,-4,14,25,9,9,30,24
1513230573562240,13,32,-7,-25,-3,-2,-23,-21
1513230573564251,32,-24,-2,11,-1,1,22,23
1513230573564251,4,1,-22,-8,0,5,-2,26
1513230573576247,-7,17,22,14,3,2,0,-2
1513230573576247,-26,-5,-24,-17,-8,-3,9,-1
1513230573585253,12,-4,7,6,1,1,1,-4
1513230573585253,-13,-16,19,3,0,1,24,9
1513230573599764,15,17,16,14,0,-5,-35,-5
1513230573599764,-17,2,-16,-15,0,4,33,11
1513230573601264,3,-10,-10,8,4,0,-26,-8
1513230573601264,0,-27,-1,-13,-8,-3,14,-11
1513230573622281,-16,9,5,-1,1,0,-10,-14
1513230573622281,-1,2,9,13,1,-3,14,-1
1513230573623780,-8,-7,-2,-3,-5,-4,-5,-4
1513230573623780,8,6,-3,-4,2,3,-6,4
1513230573644795,-10,-21,18,23,10,5,15,-2
1513230573644795,14,4,3,2,2,5,32,41
1513230573647299,37,26,9,1,1,-4,-36,-14
1513230573647299,-36,-1,25,2,1,2,16,-14
1513230573660307,1,-53,-10,-8,-9,-3,-29,-15
1513230573660307,5,30,-37,-16,-1,1,21,13
1513230573661807,-13,22,30,5,0,2,-47,-26
1513230573661807,16,-19,4,0,-5,-5,10,13
1513230573682322,7,25,3,-8,-1,0,13,-7
1513230573682322,-13,-15,0,12,3,6,30,24
1513230573683835,-8,-34,-28,-29,-11,-8,-43,-23
1513230573683835,-4,23,5,-9,-4,-6,-35,-35
1513230573704840,-14,0,-44,-6,-2,1,31,4
1513230573704840,11,-11,25,9,2,5,-21,-18
1513230573706342,5,12,9,14,3,-1,19,7
1513230573706342,-1,3,15,0,1,0,-6,1
1513230573719347,22,51,9,-13,-3,-1,16,11
1513230573719347,-30,-73,-19,1,-4,-2,-3,-15
1513230573725852,2,-6,5,-1,-4,-1,20,-8
1513230573725852,3,-27,-28,-10,1,-4,-2,0
1513230573742365,-24,34,43,5,3,2,37,18
1513230573742365,5,-2,-20,3,0,-6,-88,-29
1513230573743865,-18,-5,10,-4,-9,-4,29,4
1513230573743865,5,-19,-19,-5,-1,-2,-6,-14
1513230573764883,-8,-18,-28,3,-5,-6,-24,-14
1513230573764883,0,21,0,-7,-2,-2,25,4
1513230573766381,13,24,15,-6,2,5,-4,-4
1513230573766381,-19,-20,-12,8,0,-2,3,-18
1513230573778890,-9,-3,-19,-15,-6,-6,-11,1
1513230573778890,17,27,11,6,1,8,42,-4
1513230573793412,-18,-46,-17,1,-3,-6,-1,17
1513230573793412,20,28,13,-1,2,2,21,1
1513230573802409,-1,-6,34,27,6,0,-57,-6
1513230573802409,7,-10,-17,-7,-5,-3,56,17
1513230573803908,-4,-6,4,-8,1,4,-6,1
1513230573803908,13,8,10,2,-1,-1,-30,-5
1513230573824922,0,-35,0,-1,-4,-2,0,-10
1513230573824922,-1,27,16,8,0,2,33,24
1513230573826423,13,32,8,-11,-3,0,-12,16
1513230573826423,-11,-52,-65,-12,-9,-7,-19,-13
1513230573838943,-22,-32,4,-14,1,12,11,18
1513230573838943,23,51,1,-10,-7,-18,-58,-7
1513230573845937,-15,-40,-20,1,-5,-5,33,-1
1513230573845937,6,10,13,9,7,4,-17,3
1513230573862452,4,55,0,0,-1,1,35,25
1513230573862452,-7,-25,5,14,3,-5,-58,-30
1513230573863965,8,26,15,-1,7,10,53,28
1513230573863965,8,7,17,0,1,-2,-42,-5
1513230573884965,-4,-24,-38,-14,-5,-5,3,-20
1513230573884965,-23,-12,14,3,-1,-5,11,-1
1513230573886481,4,-4,-34,-10,-3,-5,-11,-17
1513230573886481,-11,15,15,12,4,7,40,5
1513230573907480,21,17,13,-15,-2,-2,-3,7
1513230573907480,-6,-16,-22,-3,-2,-1,-14,-12
1513230573908982,-22,-12,17,7,-2,-2,-1,-1
1513230573908982,-5,-2,-31,-24,-12,-7,55,-8
1513230573921992,9,-8,6,-2,0,-2,-45,-4
1513230573921992,-2,9,25,9,1,6,29,19
1513230573923992,4,13,-10,4,1,1,-36,-18
1513230573923992,5,-3,16,16,2,0,-5,10
1513230573945020,0,15,14,1,-1,-1,10,-6
1513230573945020,18,2,-2,-12,-5,-4,-22,-22
1513230573947521,-4,-28,-46,-16,-2,1,20,11
1513230573947521,-8,19,13,1,-2,-2,-10,10
1513230573959018,-5,-17,-18,-5,0,2,12,-3
1513230573959018,-11,-9,23,14,3,-4,-16,-6
1513230573966035,-2,2,-11,-16,-8,-6,5,-20
1513230573966035,-2,-13,-12,3,-1,-2,-13,-16
1513230573982533,9,12,-4,-5,0,2,21,24
1513230573982533,-38,18,31,24,8,6,2,-12
1513230573984044,16,-11,-48,-9,-1,-1,13,-12
1513230573984044,-5,0,-10,-8,-3,-1,-12,17
1513230574005050,-5,-16,7,13,0,-2,-43,-32
1513230574005050,-22,9,-25,-23,-4,2,20,17
1513230574006550,1,9,26,17,1,-4,-18,-2
1513230574006550,-13,9,14,9,3,6,20,25
1513230574019059,13,-22,-24,-23,-4,1,-2,-37
1513230574019059,-7,-9,-11,-5,-4,-5,-49,-6
1513230574026065,-19,10,7,-2,-1,-5,8,11
1513230574026065,15,-6,0,10,3,3,2,-10
1513230574042095,-23,36,26,-7,0,0,2,2
1513230574042095,12,-33,-48,-27,-10,-8,2,3
1513230574044080,9,-3,18,12,0,-3,-2,-6
1513230574044080,11,6,12,2,4,7,30,32
1513230574064614,-16,8,-14,-1,-5,-12,-16,-15
1513230574064614,5,12,13,6,6,6,-7,-18
1513230574066606,10,-9,34,19,3,4,13,14
1513230574066606,-4,1,-27,-9,-5,-5,0,-13
1513230574079114,13,-15,-7,-5,-3,-2,42,35
1513230574079114,-2,14,19,1,3,2,-38,3
1513230574086108,-18,-9,-6,-7,-5,-5,-10,-15
1513230574086108,3,-7,-13,-9,-6,-4,9,16
1513230574102139,-2,-31,-17,15,1,-2,-49,-26
1513230574102139,15,-11,-23,-17,-4,0,13,16
1513230574108636,-9,19,17,9,1,1,-1,-11
1513230574108636,-10,-12,15,14,1,-3,12,5
1513230574124634,11,19,8,-14,-2,-1,-10,13
1513230574124634,-6,-2,12,1,0,0,27,-1
1513230574126636,22,10,-20,-7,2,4,6,22
1513230574126636,-5,20,9,-3,-2,-5,-18,-23
1513230574138645,-11,-35,1,14,-1,-1,15,6
1513230574138645,7,8,-12,9,0,-2,-2,-11
1513230574147665,-16,9,9,-26,-2,3,12,20
1513230574147665,1,16,17,5,6,4,-19,-22
1513230574162165,-20,-28,-10,13,3,0,8,13
1513230574162165,6,4,-12,-12,-3,1,16,5
1513230574164172,-1,9,-5,-5,-4,4,31,22
1513230574164172,3,4,2,-2,-1,-1,-15,-10
1513230574192182,30,17,5,-12,-3,-3,2,4
1513230574192182,-36,-8,20,28,7,5,31,10
1513230574194198,-4,-25,-27,-24,-6,-6,-21,-18
1513230574194198,-16,-8,-1,-3,0,3,18,2
1513230574198687,6,14,-10,-7,-3,1,-4,2
1513230574198687,-4,-6,24,7,-1,-9,-53,-20
1513230574207193,-7,15,-4,3,-2,-5,24,-1
1513230574207193,29,33,21,-1,1,-1,-24,15
1513230574222247,-25,-62,-36,-23,-5,0,17,-14
1513230574222247,22,3,-19,13,0,2,-6,6
1513230574228251,-11,19,-3,-18,-4,-2,16,-1
1513230574228251,-7,-26,-1,6,0,0,-24,-1
1513230574244753,9,23,13,1,1,-3,23,9
1513230574244753,-35,11,7,-13,0,-1,-17,-30
1513230574250760,38,-24,-5,6,-5,-7,6,4
1513230574250760,-18,-12,-10,6,-3,0,27,0
1513230574258262,26,36,14,-3,-2,-2,-46,-16
1513230574258262,-23,-40,-13,-7,-5,-2,19,-1
1513230574267269,1,22,-5,15,2,0,3,2
1513230574267269,-5,-15,-5,-16,-3,-2,-14,-11
1513230574282280,-13,5,43,31,7,1,14,12
1513230574282280,23,-14,-33,-9,-7,-7,-16,-11
1513230574283790,-21,-24,9,0,3,3,-11,-2
1513230574283790,2,4,-9,-11,-2,0,2,-8
1513230574304797,-21,3,-13,-14,-4,-3,-66,-26
1513230574304797,49,25,1,-2,-3,-4,41,21
1513230574306297,-1,10,10,19,4,2,-4,-17
1513230574306297,-1,-3,-20,-11,-1,-4,-20,28
1513230574318305,-16,-6,-22,-15,-9,-8,3,-11
1513230574318305,-5,7,27,6,0,1,24,6
1513230574327323,-10,-24,-15,1,2,5,-14,-2
1513230574327323,12,6,-14,-5,-7,-10,-20,-32
1513230574342322,8,1,6,9,5,5,26,3
1513230574342322,-5,-11,1,4,0,0,-25,-4
1513230574343824,8,6,16,-11,-3,-2,7,16
1513230574343824,-15,-9,-15,-9,-4,3,47,39
1513230574364841,7,10,-22,5,-1,-3,-32,-37
1513230574364841,4,-16,29,16,6,4,-2,3
1513230574366339,2,15,4,-5,-2,-1,0,11
1513230574366339,-4,-25,-4,-6,-4,-4,-26,-31
1513230574378347,20,30,27,15,3,6,38,29
1513230574378347,-1,-7,-12,8,0,1,4,8
1513230574387354,19,6,12,0,1,-1,-16,-9
1513230574387354,1,-16,-17,-1,-3,-7,-44,-40
1513230574402367,-21,8,-7,-13,0,5,26,22
1513230574402367,-23,10,0,-4,-6,-7,-28,-19
1513230574403866,-7,2,21,19,3,-1,-2,2
1513230574403866,-1,15,37,13,4,2,15,13
1513230574424901,-21,-39,-19,-13,-5,-3,-8,-23
1513230574424901,-4,18,1,-3,1,3,8,3
1513230574426402,-16,-21,-22,-10,-7,-5,3,5
1513230574426402,-12,20,17,3,4,4,-18,-8
1513230574438403,1,-12,1,-3,-3,-6,12,2
1513230574438403,-11,19,1,1,-1,-7,-3,9
1513230574454903,-4,-23,-44,4,-1,-5,-23,-27
1513230574454903,1,-18,-6,-22,-2,4,12,12
1513230574462915,13,10,22,9,6,3,36,36
1513230574462915,3,-15,-21,-30,-8,-5,-5,-46
1513230574464409,11,44,20,28,4,-4,2,17
1513230574464409,8,-25,-18,-7,-2,-5,-9,5
1513230574483944,7,7,-14,-3,-3,-1,14,6
1513230574483944,-26,-11,-4,6,4,5,-32,-6
1513230574492435,17,-48,-7,-8,-2,1,-10,-10
1513230574492435,-18,29,-13,-14,-7,1,40,34
1513230574507449,7,0,5,8,1,-1,-44,-36
1513230574507449,13,6,6,-4,-1,0,3,21
1513230574508950,19,-5,-1,-9,-3,-2,13,3
1513230574508950,4,-16,2,14,-1,-1,19,-12
1513230574522450,-3,-9,-5,7,-5,-2,-16,3
1513230574522450,15,1,-42,-30,-9,-4,23,25
1513230574523965,-17,2,15,7,4,3,-52,-34
1513230574523965,9,16,21,17,4,-4,-18,-4
1513230574544975,20,2,-23,-24,-5,0,-3,4
1513230574544975,-20,-24,7,3,-3,-6,6,-4
1513230574547482,-12,2,18,-3,2,3,28,16
1513230574547482,6,8,1,12,-2,-1,-10,-14
1513230574566480,-11,8,-5,3,1,1,12,11
1513230574566480,9,-12,-14,-9,-4,-3,22,6
1513230574574998,-27,-66,-27,-5,-6,-8,-40,-13
1513230574574998,-9,26,13,-16,-4,-4,-11,-35
1513230574582008,14,3,44,38,7,1,-9,3
1513230574582008,3,1,-11,-24,-4,2,23,-1
1513230574584020,-10,12,-8,-2,-4,-3,-3,12
1513230574584020,15,-3,-9,-10,0,2,18,8
1513230574605019,-26,-47,-29,-4,-6,-5,-2,-8
1513230574605019,-1,11,15,6,5,3,-6,-17
1513230574606518,-5,20,7,-2,-2,1,17,5
1513230574606518,-8,-4,13,16,0,-2,-4,-3
1513230574627033,6,25,-1,-22,-2,4,7,28
1513230574627033,2,-18,-10,3,-1,1,-5,-21
1513230574629026,-23,6,12,8,3,-3,-54,-19
1513230574629026,5,-3,11,13,1,-1,-1,8
1513230574642034,0,-10,-28,-14,-8,-5,6,1
1513230574642034,6,12,13,-2,0,3,9,18
1513230574644036,14,22,-14,-8,0,0,28,8
1513230574644036,-10,-22,4,3,-5,-4,-4,-5
1513230574665050,11,12,30,14,6,0,-15,-13
1513230574665050,-11,3,4,-3,0,-1,-2,23
1513230574666551,0,-7,-13,-3,-2,-2,-21,-44
1513230574666551,-17,9,-6,0,0,3,0,-21
1513230574687107,-16,-12,-5,1,0,2,53,-1
1513230574687107,-2,-5,-11,-19,-1,-3,-41,2
1513230574689092,12,15,26,21,6,1,5,4
1513230574689092,34,-4,-18,-19,-1,2,-14,6
1513230574701579,-6,-17,-31,-5,-4,-1,37,19
1513230574701579,2,3,10,15,0,-3,-5,-15
1513230574708584,11,28,5,8,4,8,39,33
1513230574708584,-24,-28,-12,-24,-11,-8,-41,-17
1513230574724614,-2,20,23,6,4,-1,-11,3
1513230574724614,-4,-16,-29,-2,-1,5,-16,-9
1513230574726594,-2,0,6,-4,-4,-3,15,5
1513230574726594,0,12,8,7,-3,-4,-13,4
1513230574747108,-3,-9,-25,-5,-3,-4,-9,-7
1513230574747108,-5,-2,1,-3,-2,-1,-16,-20
1513230574753616,-2,3,21,12,0,-1,-2,-5
1513230574753616,5,29,-8,-17,0,2,5,9
1513230574769624,-22,4,-3,-6,-4,-8,-14,0
1513230574769624,13,0,6,4,0,-4,20,5
1513230574771641,-16,-34,-11,-4,-3,-2,21,11
1513230574771641,9,14,19,19,4,0,-25,-18
1513230574785136,-17,-3,-1,-6,-3,-4,-44,-16
1513230574785136,-13,11,-8,-13,-4,-4,13,0
1513230574792642,16,-2,-8,-12,-2,-3,-16,5
1513230574792642,-8,-5,-1,5,2,1,-5,10
1513230574807150,-6,-6,-8,-2,-2,-3,-3,-9
1513230574807150,0,1,8,8,-3,-4,-19,-8
1513230574808652,5,-3,2,-5,-1,2,21,24
1513230574808652,-15,-7,-30,-1,-1,-1,18,3
1513230574821665,21,24,58,7,3,4,1,-4
1513230574821665,-2,-14,-39,3,-2,-4,-10,1
1513230574828188,0,21,19,8,0,1,-11,-10
1513230574828188,-5,-20,-43,-39,-7,-4,13,-8
1513230574853194,4,-4,28,16,6,7,9,19
1513230574853194,5,9,17,2,0,3,8,8
1513230574854685,-6,-9,-6,-7,-3,2,19,-3
1513230574854685,-7,2,7,1,-2,-5,-43,-12
1513230574867204,29,2,-14,-8,-4,-5,2,-4
1513230574867204,3,20,35,10,4,4,-2,2
1513230574868694,-4,-10,-31,-10,-9,-8,-4,-8
1513230574868694,-3,-1,6,0,2,7,52,7
1513230574881714,-13,-18,-25,-28,-6,-7,-42,-8
1513230574881714,19,14,28,14,4,2,14,18
1513230574888719,2,-3,-32,-13,-7,-5,-13,-9
1513230574888719,-7,-6,6,6,-2,0,23,17
1513230574904720,-2,9,-1,7,-1,-2,9,-12
1513230574904720,-1,-6,-4,-4,-3,-1,12,18
1513230574910725,-4,-9,-25,-15,-4,-6,-36,-30
1513230574910725,3,5,26,18,7,1,-8,5
1513230574927247,-5,-13,-17,-25,-1,3,18,1
1513230574927247,-17,-13,12,-7,-8,-4,-29,-27
1513230574928737,1,5,21,-5,-1,2,14,12
1513230574928737,-5,-9,-40,7,0,1,10,8
1513230574941747,2,2,5,20,2,-2,-6,-5
1513230574941747,-16,-14,-8,-2,-1,-3,5,0
1513230574948254,1,5,19,-3,0,3,4,2
1513230574948254,3,-3,2,8,-3,-2,-8,-6
1513230574964783,-13,13,4,1,1,1,5,2
1513230574964783,0,-7,-28,-14,-6,-4,-6,-9
1513230574966263,-5,-7,12,11,1,-2,-3,-6
1513230574966263,2,16,19,2,-2,-5,-12,-10
1513230574987281,0,-26,-52,-18,-8,-11,1,6
1513230574987281,7,9,13,7,-1,-3,17,7
1513230574988781,2,12,22,5,3,5,-14,0
1513230574988781,1,-6,-20,-6,-1,2,10,10
1513230575001788,-7,-6,0,4,-6,-6,3,-15
1513230575001788,1,-5,-12,-2,-2,-3,-28,1
1513230575015801,-5,3,14,-5,0,-3,15,6
1513230575015801,4,-2,5,2,0,2,-2,0
1513230575024806,-10,-16,-62,-8,-3,0,0,-4
1513230575024806,-8,-6,-3,6,-1,-3,11,6
1513230575026307,-3,10,5,6,6,4,-11,-13
1513230575026307,11,9,14,-4,-2,-4,-7,-3
1513230575047821,-1,-2,12,5,2,1,-6,-5
1513230575047821,3,1,0,-8,-3,2,10,6
1513230575049337,-4,-2,-9,-12,-6,-6,-7,-2
1513230575049337,4,5,17,15,12,4,8,7
1513230575060831,-1,6,21,9,-1,4,6,6
1513230575060831,-7,-7,-21,-8,-1,0,-8,-13
1513230575069836,2,6,13,5,4,1,7,1
1513230575069836,-5,-21,-23,-15,-7,-3,-9,-4
1513230575084847,10,17,31,10,3,2,1,3
1513230575084847,3,6,-4,4,3,2,-4,-5
1513230575086348,4,-13,-20,-8,-4,-4,-1,-1
1513230575086348,-3,0,-4,-6,-2,-2,1,6
1513230575107364,4,6,12,-1,2,-1,-5,0
1513230575107364,4,4,-1,2,-3,-2,2,-1
1513230575108876,-2,-3,-1,0,-2,-3,-1,3
1513230575108876,0,1,3,0,-1,-2,-1,-1
1513230575120885,-1,-1,17,-1,-2,0,-1,0
1513230575120885,2,-2,-9,2,2,-1,-4,-5
1513230575130379,6,-1,-5,0,-3,0,5,2
1513230575130379,-11,-5,5,3,-6,-2,-2,-4
1513230575144904,1,1,-1,-4,2,-1,-3,-2
1513230575144904,-1,-2,1,-1,-4,-2,0,-2
1513230575146391,1,1,-8,10,-1,-3,-5,-2
1513230575146391,0,4,8,-2,0,0,8,3
1513230575167415,-2,-8,-4,-4,-5,-3,-1,-3
1513230575167415,0,-3,-21,-5,-2,1,-2,1
1513230575168917,-4,1,8,1,-2,-1,5,0
1513230575168917,0,-4,-10,-6,-5,-3,-5,1
1513230575180925,-6,2,20,8,1,0,-1,0
1513230575180925,-1,-6,12,2,-1,-1,-3,-1
1513230575189924,-3,5,12,-3,-1,-1,0,0
1513230575189924,-4,-6,-13,-6,-1,-2,-2,0
1513230575204932,2,2,24,-5,-1,0,-2,-1
1513230575204932,1,3,-20,2,-1,-2,1,-1
1513230575206436,-5,-9,-19,-16,-2,-2,-2,-2
1513230575206436,0,1,10,9,3,-1,-2,-3
1513230575226957,-3,-8,-36,-9,-3,-3,-1,-1
1513230575226957,0,0,30,0,-1,-2,0,-3
1513230575228949,4,1,-45,-6,-2,-1,0,1
1513230575228949,-2,-3,17,-1,-3,-3,-2,-2
1513230575249966,0,1,-4,-3,-1,0,0,-1
1513230575249966,-4,-3,-12,16,-4,0,-1,-2
1513230575251465,-7,-4,-17,10,14,5,0,-1
1513230575251465,4,6,-25,4,0,1,0,1
1513230575264974,0,7,60,2,-3,-1,-2,0
1513230575264974,-1,-11,-21,-24,-5,-4,-4,-2
1513230575266475,1,-3,-35,-1,-3,-2,0,-1
1513230575266475,2,5,-21,-5,-3,0,-2,-1
1513230575287017,0,2,44,14,1,-1,0,-1
1513230575287017,-2,8,41,2,-2,-1,-2,-2
1513230575288992,1,5,25,1,-3,-1,-1,1
1513230575288992,-2,-13,-45,-21,-1,-3,-1,-3
1513230575301032,-4,-11,-11,-4,-1,-2,-1,-1
1513230575301032,3,14,-50,8,4,2,1,1
1513230575310006,-5,-9,-11,-12,-3,-3,-3,-2
1513230575310006,2,10,23,18,-1,0,-1,0
1513230575324526,-9,-5,-14,-17,-4,-1,-2,-5
1513230575324526,3,3,28,-2,1,-1,-2,-4
1513230575326527,-1,-11,-13,2,-2,0,-1,-2
1513230575326527,-2,9,-63,-16,-4,-3,-3,0
1513230575347035,1,-16,24,10,0,0,0,0
1513230575347035,3,-1,9,3,0,-2,1,0
1513230575349036,-9,4,35,4,-4,-1,-1,-3
1513230575349036,-5,-3,-19,-11,-1,-1,-1,-3
1513230575361044,5,8,-38,0,-2,-2,0,1
1513230575361044,-1,-14,-35,-8,-1,0,-2,0
1513230575370052,4,11,80,10,-2,-3,-2,0
1513230575370052,-3,-17,3,-1,-1,-1,-1,-2
1513230575384571,2,12,-7,-5,-2,0,-2,1
1513230575384571,3,12,5,3,2,-1,1,0
1513230575386561,-10,-35,-5,-11,-4,-3,-4,-5
1513230575386561,0,34,23,6,1,1,0,1
1513230575407576,-14,-65,-56,-5,-2,-1,-2,-2
1513230575407576,7,-5,10,-7,-3,-1,-1,1
1513230575409088,2,32,2,-1,-2,-1,-1,-1
1513230575409088,2,-8,-3,1,-1,-2,-2,-1
1513230575421084,5,13,-1,3,0,0,-1,-1
1513230575421084,-2,15,29,4,0,1,-2,1
1513230575430101,-6,-38,-37,-7,-3,0,-2,-5
1513230575430101,-14,-4,27,5,1,0,0,0
1513230575444616,-6,-3,3,-14,-4,-3,-2,-1
1513230575444616,2,-8,7,4,3,-1,-1,-2
1513230575447104,9,49,13,0,-2,-1,0,2
1513230575447104,6,-33,60,3,0,-2,1,2
1513230575467162,0,31,-45,-5,-2,-1,-1,-5
1513230575467162,-9,7,7,-6,-3,-3,-4,-6
1513230575468663,-1,-26,-18,0,0,-1,-1,2
1513230575468663,3,14,3,-5,-3,-1,-2,-1
1513230575481172,2,-5,22,8,3,1,0,2
1513230575481172,2,-3,-20,-6,-1,0,-2,1
1513230575489677,1,1,-9,1,-1,0,1,0
1513230575489677,3,6,4,-1,-2,-2,-1,-1
1513230575504688,-1,18,-2,1,-1,0,-1,-1
1513230575504688,-4,-3,8,3,1,0,0,0
1513230575506189,-4,-9,0,-2,1,-2,-2,-2
1513230575506189,-3,-6,-12,-3,-2,0,0,-1
1513230575542215,1,6,15,3,2,1,1,1
1513230575542215,-6,-6,-7,0,-2,-2,0,-3
1513230575543715,0,4,-4,-2,-3,0,-2,1
1513230575543715,2,1,3,-3,-1,-1,-2,0
1513230575549723,2,1,-2,0,0,-1,-2,-1
1513230575549723,-3,-13,-4,1,-3,-2,-1,0
1513230575551221,-1,-4,-6,-2,-2,-1,0,-4
1513230575551221,0,-3,5,-1,0,-1,-3,-2
1513230575564733,0,-5,0,-1,-1,0,-1,0
1513230575564733,-5,-5,-7,-1,-1,-1,-2,-2
1513230575570747,0,5,5,1,-3,-1,-1,-2
1513230575570747,-3,-4,-4,-2,-2,0,-2,-1
1513230575587298,1,-2,-3,1,-1,0,0,-2
1513230575587298,-1,-2,0,-1,-1,-2,1,-2
1513230575588748,-1,0,-2,-1,-1,-1,-1,-1
1513230575588748,-1,-5,-3,-1,-3,-2,-1,0
1513230575609775,-1,-1,-2,-1,-3,-1,-1,-1
1513230575609775,0,-4,-1,-1,-1,-1,-1,-1
1513230575611266,-3,-2,-1,-1,-1,-1,-1,-1
1513230575611266,-1,-2,-5,-1,-3,-1,0,-2
1513230575624793,-2,-2,1,0,-2,0,-1,-1
1513230575624793,-2,-2,0,-2,-2,-2,-1,-1
1513230575626274,0,5,-2,-3,0,-1,0,-1
1513230575626274,-1,-2,-1,-1,-1,-2,0,-1
1513230575647288,4,-2,-1,-3,-3,-1,-1,-1
1513230575647288,-1,-4,-2,-2,-2,0,0,-1
1513230575648790,-1,0,-2,-1,-1,-2,-1,-1
1513230575648790,0,-2,0,-1,-2,0,-2,0
1513230575669805,-2,-4,-1,-2,-2,-3,-3,-1
1513230575669805,-2,-2,-6,-2,-1,-1,-1,0
1513230575671306,1,-4,0,-1,0,-2,-1,-1
1513230575671306,0,-6,-1,0,-1,-1,0,-2
1513230575684815,-1,-4,-1,-2,-1,-2,1,-1
1513230575684815,1,8,1,-1,0,-1,0,-3
1513230575690820,-3,-6,-3,-2,0,0,-1,0
1513230575690820,-2,6,3,0,-1,-1,-1,-2
1513230575707832,-3,-2,-5,-1,-2,-3,0,-1
1513230575707832,-2,-3,0,-1,-1,-1,0,-1
1513230575709333,-2,0,1,-4,-3,0,-1,-1
1513230575709333,-1,1,-2,-2,-1,-1,-1,1
1513230575728861,0,2,0,1,-1,-1,-1,1
1513230575728861,-1,-3,0,0,-1,1,-2,-1
1513230575737352,-1,-1,-3,0,0,-1,1,0
1513230575737352,-2,-5,-3,0,-2,-2,-1,-2
1513230575743897,0,6,0,-2,-1,-1,-2,-3
1513230575743897,-1,-2,-2,-1,-2,-1,-2,0
1513230575750886,-2,-4,-1,-1,-1,-1,-2,-2
1513230575750886,-2,-4,-2,-1,-1,0,-1,0
1513230575767375,-1,-2,-1,-1,0,-1,-1,-1
1513230575767375,0,0,-2,-1,0,-2,-1,0
1513230575768878,0,1,0,0,-1,-1,-1,-3
1513230575768878,-1,-2,-2,-2,0,-1,0,-1
1513230575789909,0,-1,-3,0,-2,0,-1,-1
1513230575789909,-2,-2,-1,-2,0,-2,-3,-1
1513230575791411,-1,-1,-3,-1,-1,-1,0,0
1513230575791411,-1,-1,-1,-1,-1,0,-1,-1
1513230575804414,-1,-3,0,-3,0,-2,-1,-1
1513230575804414,-2,-3,-2,0,-3,0,-1,-2
1513230575812406,-1,2,-1,-1,-1,-1,-2,-1
1513230575812406,-1,-1,1,-2,0,-1,-1,-2
1513230575827430,-2,1,1,-1,0,0,0,-1
1513230575827430,0,-2,-1,-2,-1,-2,-1,-1
1513230575828930,-2,-3,-2,-1,0,-1,-1,-3
1513230575828930,-2,-1,-1,0,0,-1,-1,-1
1513230575849941,-1,-2,-2,0,0,-1,-1,1
1513230575849941,0,-1,-1,0,-1,-1,-1,1
1513230575851442,0,0,0,0,0,-1,-1,0
1513230575851442,-1,0,-1,-1,-1,0,-1,-1
1513230575863987,1,-2,-1,-2,-2,-2,0,0
1513230575863987,-1,0,-3,-2,-1,0,-1,-1
1513230575870967,0,-3,-1,-1,0,-2,-2,0
1513230575870967,-1,-1,-2,-2,0,-1,-2,-2
1513230575887471,-2,-1,-1,-1,0,-2,-1,-1
1513230575887471,-1,-1,-2,1,-3,1,-1,-1
1513230575888972,0,-1,-3,-2,-1,-1,-1,-1
1513230575888972,1,2,-2,0,-1,-2,-2,0
1513230575909975,1,-1,0,-1,-2,-1,-1,-2
1513230575909975,0,-1,0,-3,-1,-2,0,0
1513230575911479,2,-3,-2,0,0,0,-3,-1
1513230575911479,-3,-1,-1,-1,-1,0,-1,-1
1513230575923994,-3,0,-1,0,0,-1,0,-1
1513230575923994,-1,-3,0,-1,0,-1,0,-2
1513230575930999,-1,-2,0,0,-2,0,-1,0
1513230575930999,0,-2,-2,-1,-1,-1,-2,-1
1513230575947501,-1,-1,-2,-1,-1,-1,-2,-2
1513230575947501,-1,1,-2,0,-1,1,0,-1
1513230575949502,-1,0,-1,-2,-2,-1,-1,0
1513230575949502,0,-1,-1,-2,-2,-2,-2,-1
1513230575969516,-2,-1,0,0,-2,-2,-1,-1
1513230575969516,-1,-2,-1,1,0,-1,0,1
1513230575971518,-2,-3,-1,0,-2,0,0,-1
1513230575971518,0,0,-1,-1,-2,-1,-1,-1
1513230575984030,1,-2,-2,-1,0,0,-2,0
1513230575984030,0,-1,0,-1,-1,-1,-2,-1
1513230575991032,-2,0,0,-2,-2,0,0,-2
1513230575991032,-2,-2,-2,-2,-1,-2,0,0
1513230576006543,-1,-1,-2,0,-2,-1,-2,0
1513230576006543,0,-4,-3,-2,0,-1,-2,0
1513230576015048,-5,1,0,-1,0,-1,0,-1
1513230576015048,-2,-2,-1,0,-1,-1,-1,-2
1513230576029576,-1,0,-1,1,-1,-1,0,0
1513230576029576,-2,1,-1,-1,-1,-1,-1,1
1513230576031571,-2,-1,-3,1,-1,0,0,-2
1513230576031571,0,0,-1,-1,-1,0,-3,-2
1513230576043570,-3,-2,-1,0,-1,0,-2,-2
1513230576043570,1,-1,-2,-1,-1,-2,-2,-2
1513230576052135,-1,-1,1,-3,-1,-1,-1,-2
1513230576052135,-2,-2,-3,-1,0,0,1,-1
1513230576067145,-1,0,0,-2,-1,-1,-1,-2
1513230576067145,-1,0,0,0,1,0,1,0
1513230576068648,-1,-1,-1,0,1,-1,-1,0
1513230576068648,0,-1,0,0,-1,0,-2,0
1513230576089662,0,0,-1,-1,-1,2,-2,0
1513230576089662,-4,-2,0,0,-3,-1,-3,-2
1513230576091664,-3,0,-1,0,-1,-1,-2,0
1513230576091664,-2,-3,0,-3,1,-2,-1,-1
1513230576103161,0,-2,-1,-3,-1,0,-1,-1
1513230576103161,-1,1,-1,-2,0,-1,-3,-1
1513230576112677,-1,-1,-1,-1,-1,0,-2,-2
1513230576112677,-1,-1,-1,0,-1,-1,1,0
1513230576127176,-4,-2,-2,-1,-3,-3,0,-2
1513230576127176,-1,-1,0,-1,-1,-1,0,-1
1513230576128675,0,-1,-1,-1,-2,-2,0,-1
1513230576128675,-4,0,0,1,1,0,-2,-2
1513230576148693,0,-1,-1,-1,0,-1,0,-2
1513230576148693,-1,0,-1,-2,-1,-2,-1,-1
1513230576157199,-2,-2,-1,-1,0,0,0,0
1513230576157199,-2,-2,-1,-2,-2,0,0,-1
1513230576163265,0,1,-2,0,-1,-2,-1,-1
1513230576163265,-2,0,-2,0,-2,0,0,0
1513230576172250,2,-1,-3,0,-1,-1,-3,-1
1513230576172250,0,-2,-1,0,0,0,-2,-3
1513230576187271,0,-1,-1,-3,-2,-1,-2,1
1513230576187271,-2,-3,0,0,-2,-2,-1,-1
1513230576188773,0,-1,0,0,-2,-2,-1,0
1513230576188773,-1,-2,-1,-1,0,-2,-1,1
1513230576209788,-2,0,0,-1,-2,1,-1,-1
1513230576209788,0,-2,-1,-3,0,-2,0,-2
1513230576211281,-1,0,1,-2,-2,0,-1,-3
1513230576211281,-1,-1,-2,-1,-1,-1,0,-2
1513230576223297,1,0,-1,-2,-1,-1,0,-2
1513230576223297,-1,1,0,0,-1,0,-1,-2
1513230576232793,-1,0,1,-2,-1,-2,0,-2
1513230576232793,0,1,-1,-1,-1,0,0,0
1513230576247317,-1,-3,-4,0,-1,-2,-1,-3
1513230576247317,-1,-2,-3,-1,-1,0,-2,-1
1513230576248804,0,0,-1,-2,0,-1,-2,0
1513230576248804,-2,0,-1,-2,-1,-1,-2,-1
1513230576277333,-5,-2,1,-1,0,0,0,1
1513230576277333,-2,-1,1,1,-1,-2,0,0
1513230576278835,-1,-3,-2,-1,0,-1,-1,-2
1513230576278835,-3,0,0,0,-2,-1,-1,0
1513230576283328,0,0,-2,-1,-1,-2,-2,0
1513230576283328,-1,-1,-3,-1,-1,-1,-3,-2
1513230576292334,-1,-1,-1,0,-3,-1,0,-1
1513230576292334,0,-2,-1,0,-2,-2,1,-2
1513230576307345,-2,-1,-2,-2,0,0,0,-2
1513230576307345,0,0,-2,-1,-2,-1,1,-1
1513230576308846,-1,-2,0,-2,0,0,-1,-1
1513230576308846,1,-3,-1,-1,-1,-2,-3,0
1513230576329868,-1,-3,1,1,0,-3,-1,0
1513230576329868,-2,-1,-1,-2,0,-3,-1,0
1513230576331378,-2,-1,-2,-3,-2,-2,-1,-2
1513230576331378,0,-3,-1,-2,-1,1,0,-1
1513230576343381,-1,0,-1,-2,0,-2,0,0
1513230576343381,-1,-1,-1,-1,-2,-1,0,0
1513230576352407,0,-2,-1,-2,0,0,0,-1
1513230576352407,1,0,-1,-1,0,-1,-1,-1
1513230576367918,0,-1,-1,0,-2,-1,-1,-2
1513230576367918,-2,-3,0,0,-2,0,-1,-3
1513230576369419,-1,0,-2,-1,-1,-2,0,1
1513230576369419,-2,-1,-2,1,-1,0,0,-2
1513230576397439,-1,-3,-3,0,0,0,0,-1
1513230576397439,-2,0,0,-2,-1,-2,-2,-2
1513230576398940,0,0,-1,-2,-1,0,-1,0
1513230576398940,0,-1,-2,-2,-2,0,0,-1
1513230576403443,-1,-2,-2,-1,-2,0,0,1
1513230576403443,-1,-2,0,-1,-1,-1,-2,0
1513230576412450,-1,-2,-1,-1,1,-1,-3,0
1513230576412450,-3,-3,-2,-1,-1,-1,-1,0
1513230576434965,-1,0,0,-2,-2,-3,-2,-3
1513230576434965,-4,-1,1,-1,1,0,0,1
1513230576436467,0,-1,0,0,-2,-1,-1,-2
1513230576436467,-2,0,-1,-1,-2,-1,-1,0
1513230576450480,-1,0,-1,0,0,-1,-3,-1
1513230576450480,0,1,-2,0,-1,0,-1,-1
1513230576451998,-1,0,-1,1,-1,1,1,-1
1513230576451998,0,-5,0,-2,-1,-1,-1,-2
1513230576472493,3,-1,-1,-3,-2,-1,-1,0
1513230576472493,0,-1,-2,-1,0,-2,0,0
1513230576473993,0,-1,-2,-3,-1,-2,-2,1
1513230576473993,0,0,-3,-2,-2,-1,-2,0
1513230576487502,-2,-2,-2,0,-1,-2,-2,-1
1513230576487502,1,-1,-3,-1,-2,-1,-2,-1
1513230576489004,-1,-2,-1,-1,-1,0,0,0
1513230576489004,0,1,-1,-1,0,-2,-2,0
1513230576524529,-1,-2,-1,-2,-2,-1,0,-2
1513230576524529,-2,-1,-2,-1,-1,-2,-1,-2
1513230576526530,0,4,0,-1,-4,-1,-1,-2
1513230576526530,-2,-8,-4,0,1,-1,-1,-1
1513230576532036,-2,2,-2,-1,0,-1,-2,0
1513230576532036,-1,-3,-2,-2,-1,0,-2,-1
1513230576534051,-3,-3,-2,0,-2,-1,-1,0
1513230576534051,0,0,0,-2,0,-1,1,-1
1513230576546544,1,-2,-1,0,-2,1,-1,1
1513230576546544,0,3,-2,-2,-1,0,-2,-1
1513230576553549,-7,0,5,0,0,-1,0,0
1513230576553549,2,2,-2,-1,-2,-3,-1,-1
1513230576569560,-1,-4,1,-1,-1,-1,0,-1
1513230576569560,-1,-1,1,0,-1,0,1,-1
1513230576571061,0,-4,-4,-2,1,-2,-1,-1
1513230576571061,-2,-1,-3,-1,0,-1,0,-1
1513230576592103,-3,-1,-2,-1,1,0,-1,0
1513230576592103,-1,-5,-2,-2,-2,-1,0,0
1513230576593577,-1,1,0,-1,-2,-1,-2,0
1513230576593577,-1,-2,0,-2,-1,-1,-2,-3
1513230576607086,1,-3,-4,-3,-2,-3,-3,0
1513230576607086,-2,-6,-6,-3,-3,-3,-3,-2
1513230576613105,-1,-2,-3,-1,-2,0,-1,-2
1513230576613105,1,2,1,-1,-2,0,-1,0
1513230576629616,-3,1,0,-2,-2,-1,-2,0
1513230576629616,1,10,6,0,0,-1,1,-3
1513230576631117,5,-17,-7,-1,-2,-1,-2,0
1513230576631117,-1,0,1,-1,-2,0,0,0
1513230576652122,-6,0,-1,1,0,-1,-3,-4
1513230576652122,0,-3,-1,-3,1,-1,1,1
1513230576653620,2,1,-3,-2,-1,-2,-1,-1
1513230576653620,4,2,-2,-2,-1,0,-1,1
1513230576666629,1,-2,-3,-2,-2,-1,-1,0
1513230576666629,-3,-3,-2,-1,-1,1,-1,0
1513230576673146,-3,2,0,-2,-1,-1,0,-2
1513230576673146,-3,-3,-2,1,-1,-2,-2,-3
1513230576697168,-2,4,1,-1,-1,-2,-1,-2
1513230576697168,0,-2,-1,-1,-3,-1,-4,0
1513230576698652,-2,0,-1,0,0,0,0,-2
1513230576698652,-5,-1,-1,-1,-1,-1,-1,0
1513230576712723,2,-4,-3,-1,-1,-2,1,-1
1513230576712723,1,0,1,-2,-1,-3,-1,0
1513230576714163,-3,-2,-1,-2,-1,0,-1,-1
1513230576714163,-2,-1,-1,-1,-1,0,-2,-1
1513230576726671,-2,-1,0,0,0,-1,-1,-3
1513230576726671,-2,-7,-2,-2,0,-1,-2,0
1513230576733176,-2,4,2,-1,0,0,-4,-1
1513230576733176,-1,-2,0,0,-1,0,0,-2
1513230576749712,1,-1,0,-1,-2,-1,-1,0
1513230576749712,0,-2,-3,0,-1,0,-1,-1
1513230576751190,-1,0,-2,-1,0,-3,0,-1
1513230576751190,0,-1,-2,0,0,-1,0,-1
1513230576772268,-3,2,2,0,0,0,0,-2
1513230576772268,-2,0,-2,-1,-1,-1,-1,-1
1513230576773760,0,-2,-2,-2,-2,0,-1,0
1513230576773760,-5,4,4,0,1,0,0,1
1513230576786286,-3,-1,-1,-1,-1,-1,-1,-3
1513230576786286,-1,1,-1,-3,-1,-2,-2,0
1513230576794773,1,2,-1,-1,1,-1,-1,-1
1513230576794773,0,-3,-3,-2,-3,0,-1,-1
1513230576809806,-1,-2,-2,-2,-2,-2,-1,-1
1513230576809806,1,2,-2,0,-1,0,-2,-1
1513230576811285,-2,-3,-1,-2,-2,-1,-3,-2
1513230576811285,1,-7,-3,-1,-2,-1,-1,-2
1513230576832303,-1,5,0,-2,-1,1,-2,-2
1513230576832303,1,-4,-3,0,-1,-1,1,-1
1513230576833801,0,-1,-1,0,-2,-2,0,1
1513230576833801,-2,-3,-1,0,1,0,-1,-3
1513230576846810,0,0,-1,-1,-2,-2,1,0
1513230576846810,-1,0,0,-1,-1,-1,-1,-1
1513230576853370,0,-2,-2,-2,0,1,-1,-1
1513230576853370,-3,1,0,-1,-2,-3,-2,-2
1513230576869858,-1,-3,-3,1,0,-2,-1,0
1513230576869858,-2,0,-2,0,1,1,-2,0
1513230576871359,-3,-2,-1,0,-1,-1,1,-2
1513230576871359,0,0,-2,-2,0,-4,-2,-1
1513230576892373,2,-2,-5,-1,-2,-1,-2,-1
1513230576892373,-5,0,-4,-1,-2,-1,0,-3
1513230576893888,0,3,0,-1,-2,-1,-1,-1
1513230576893888,-1,-1,0,0,0,-1,-1,-1
1513230576906884,0,-7,-4,-3,-1,-1,-2,-2
1513230576906884,-1,-2,0,-1,-2,-1,-2,-2
1513230576913391,-1,-3,-3,-1,-1,-2,-1,-1
1513230576913391,1,0,0,-2,-2,-1,-1,0
1513230576929935,-1,-2,0,0,1,-1,0,0
1513230576929935,-1,-2,-2,-2,-1,-1,-1,-2
1513230576931421,-2,-1,0,-1,-2,-3,1,0
1513230576931421,0,0,-1,0,1,-1,-2,1
1513230576952480,-4,-2,1,1,-1,0,1,-1
1513230576952480,-2,0,0,-2,0,0,-1,-1
1513230576953969,0,1,-1,0,-2,-1,-1,-1
1513230576953969,-1,-2,-1,-1,0,0,-1,-2
1513230576965989,1,-2,-4,-3,-1,-3,-2,-1
1513230576965989,1,0,1,1,-1,-1,-2,-1
1513230576974985,-3,0,1,0,0,-1,-1,-2
1513230576974985,-5,-1,-1,-1,-3,-1,-1,-1
1513230576990006,-1,-1,-2,-2,-1,-2,-3,-2
1513230576990006,-2,-6,-1,-1,-2,-1,-1,-1
1513230576991996,-1,0,-1,-1,1,0,-2,1
1513230576991996,-1,-6,-6,-4,-2,-1,-1,-1
1513230577012010,-3,0,0,1,1,-1,1,1
1513230577012010,-1,-2,-1,-1,-2,-2,-1,-1
1513230577014023,-1,-4,-2,-1,-1,-1,-2,0
1513230577014023,-1,0,-2,0,1,-1,-1,0
1513230577026020,-3,-1,1,-1,-2,0,-2,-2
1513230577026020,0,0,-1,0,-2,-1,-1,-1
1513230577035040,-2,-3,-2,-2,-1,-1,-2,-1
1513230577035040,-2,-2,1,-1,-1,-1,-1,-1
1513230577049540,1,0,-1,-2,-1,-2,-1,0
1513230577049540,-2,0,0,-1,-1,-2,-1,0
1513230577051541,0,1,-1,0,-1,-1,0,-2
1513230577051541,0,-5,-1,-2,0,-2,-2,-1
1513230577072554,-1,-1,0,-1,-1,-1,0,-1
1513230577072554,-2,0,0,0,-1,0,-1,0
1513230577074556,4,-2,-3,-2,-2,-2,-1,0
1513230577074556,-3,-1,-1,-1,-1,0,-1,-2
1513230577086063,0,-1,-2,-3,-3,0,-1,-1
1513230577086063,-1,-2,-3,-2,-1,0,0,0
1513230577095069,-1,0,3,0,-1,-2,-1,-1
1513230577095069,-2,5,2,1,0,0,0,-1
1513230577109591,-1,-11,-4,-1,0,-1,-2,-2
1513230577109591,-1,0,-1,-2,-1,-3,-1,-2
1513230577111594,-2,-2,-1,-1,-1,-3,-1,0
1513230577111594,1,-2,-3,-2,-1,-2,0,-3
1513230577132095,-2,2,1,1,-1,-1,-1,-1
1513230577132095,-2,-4,1,1,1,1,0,-1
1513230577134096,-2,3,-3,-2,0,0,-1,-2
1513230577134096,-1,-1,1,-2,-2,-2,-1,0
1513230577146106,-1,0,-2,-1,-2,-2,-1,-1
1513230577146106,-3,3,1,0,0,0,0,-2
1513230577162117,-2,0,2,-2,-1,0,-3,-2
1513230577162117,-1,-2,-1,-1,-1,-1,-3,1
1513230577169621,-1,0,0,0,1,-1,0,-2
1513230577169621,-1,3,1,-1,-1,-2,-2,0
1513230577171122,-3,-5,-3,0,-1,-1,0,-1
1513230577171122,-1,1,-1,0,-2,0,0,0
1513230577192137,-8,1,3,1,-1,-1,-2,-3
1513230577192137,-1,-4,-3,-1,0,-1,-1,-1
1513230577193638,0,0,-2,-2,-2,0,-1,0
1513230577193638,-1,-3,-1,-1,-1,0,0,0
1513230577206149,2,7,5,0,2,1,0,0
1513230577206149,2,-4,-3,0,-1,-1,-1,-1
1513230577214653,-3,-1,0,0,-2,-2,-1,-1
1513230577214653,0,-3,-3,-2,-2,-3,-2,-3
1513230577229664,1,-2,-3,-3,-3,0,-1,-1
1513230577229664,0,2,0,-3,-2,-1,-2,-2
1513230577231165,0,-2,0,-1,1,-2,-1,0
1513230577231165,-1,4,0,-1,-1,-2,-1,-2
1513230577252180,-1,-2,-4,-1,-1,-2,-2,1
1513230577252180,-1,-1,-3,-1,-1,-1,-1,0
1513230577253681,-3,-6,-3,1,0,-1,0,1
1513230577253681,-2,-2,0,0,-1,0,0,0
1513230577266690,1,-4,-2,-2,-1,0,-2,-2
1513230577266690,0,-5,-1,0,-1,-1,-1,2
1513230577274696,-3,3,0,-2,0,-1,-1,-2
1513230577274696,-1,-1,-3,0,-2,-1,-1,-2
1513230577289706,-1,3,-2,-2,-2,-2,1,-1
1513230577289706,-3,2,0,-1,-1,-2,0,-1
1513230577291207,0,-1,-1,-1,0,-1,0,-2
1513230577291207,0,-2,-2,-1,-2,1,-1,0
1513230577312224,-2,-12,-6,-3,-2,-3,-2,-2
1513230577312224,0,5,-1,-2,0,-2,-2,-3
1513230577313735,0,0,-1,-2,-2,-2,0,-2
1513230577313735,0,-2,-2,-1,-2,-3,-3,0
1513230577326232,-1,-3,-1,-1,0,-1,0,-1
1513230577326232,-2,-4,-2,-1,-2,0,-1,-1
1513230577334739,0,1,0,-2,-2,-2,-2,-2
1513230577334739,-1,1,-3,-1,1,0,0,-1
1513230577350277,1,2,-1,-1,-1,-2,0,-1
1513230577350277,-3,-7,0,-1,-1,-1,-1,0
1513230577351770,-1,8,2,-2,-1,1,0,0
1513230577351770,1,-11,-3,-4,-4,-1,-3,-2
1513230577372304,-1,-1,1,-1,1,0,-1,-1
1513230577372304,1,12,-2,-1,-1,-4,0,-3
1513230577373765,-3,-5,-1,-1,1,-2,0,0
1513230577373765,0,-4,-5,-2,-2,-3,-2,-2
1513230577394290,-2,-5,-1,-2,-3,0,-2,-1
1513230577394290,-1,0,1,-1,-2,-1,-2,-2
1513230577410295,2,-2,-1,0,-1,-2,-1,-1
1513230577410295,0,2,2,-1,1,-2,0,0
1513230577411293,-2,-3,-4,-1,-2,-2,0,-2
1513230577411293,0,-4,-1,-2,1,-1,-2,0
1513230577412808,0,-2,-2,-2,-1,-1,-2,-3
1513230577412808,-3,1,0,-1,-1,0,0,-1
1513230577432307,1,-1,0,-2,-2,-1,-1,0
1513230577432307,-3,-3,-1,1,-1,-1,-1,0
1513230577433834,-2,-4,-2,0,-2,-1,0,-1
1513230577433834,0,-3,-2,1,-2,-1,-2,-1
1513230577454839,0,5,-1,-2,0,-1,-3,1
1513230577454839,0,-6,-3,-2,0,-2,0,-1
1513230577456326,-1,4,2,0,-1,-2,-1,-1
1513230577456326,-1,0,-1,0,-2,-1,0,0
1513230577477365,-2,-1,-1,1,-2,0,1,-1
1513230577477365,0,-1,1,-2,0,0,1,-2
1513230577478857,-3,-3,-2,-3,-2,-2,-1,-2
1513230577478857,-2,0,0,-1,1,-2,-1,-1
1513230577492367,4,1,-2,-2,-1,-3,-1,1
1513230577492367,-5,-5,-3,0,-1,-1,-1,-2
1513230577493868,-3,-5,-1,-1,0,1,2,-2
1513230577493868,-2,2,-3,-2,0,-2,-3,-2
1513230577514931,0,-3,-2,1,1,0,-1,-1
1513230577514931,2,0,-3,-3,-2,-2,-1,-1
1513230577516393,-2,-9,-2,0,-2,-1,-1,1
1513230577516393,-1,14,4,0,-2,-3,0,-3
1513230577529894,-2,-2,-1,0,-1,-1,-2,-2
1513230577529894,0,1,2,-1,-2,-2,-1,-1
1513230577531409,1,1,-2,0,0,0,-2,-1
1513230577531409,-2,-4,-1,-1,-2,-1,0,1
1513230577552409,-3,-4,-1,1,-1,-1,-1,-1
1513230577552409,0,6,0,-2,-2,-1,0,0
1513230577553911,0,-2,-3,-3,-1,-1,-1,0
1513230577553911,-1,-3,0,0,-1,0,0,-2
1513230577574925,0,-1,1,0,-1,-2,-1,-1
1513230577574925,-2,-5,-4,-2,-1,0,-2,-1
1513230577576428,-1,1,-2,-1,-2,-2,-1,0
1513230577576428,-2,-3,-1,-1,-1,1,-1,-1
1513230577588935,-1,2,-2,-1,-1,-2,1,0
1513230577588935,-1,-2,0,-2,-1,-2,-2,0
1513230577595955,2,0,-1,-1,-2,-1,-4,-2
1513230577595955,-2,-4,-1,-2,-1,-1,-1,-2
1513230577612451,3,-1,-2,-2,-3,-2,-3,-3
1513230577612451,-4,10,4,0,1,-1,0,-2
1513230577613955,-2,-4,-5,-1,-2,-1,-1,-1
1513230577613955,-1,-2,-3,-1,0,-1,0,-1
1513230577634967,-2,-2,-1,0,-1,2,0,-1
1513230577634967,2,-4,-2,-2,-2,-1,-2,0
1513230577636490,1,-2,-3,-1,-1,-2,-1,1
1513230577636490,-3,2,0,0,-1,-1,-2,-1
1513230577648980,-2,-7,-3,-1,-2,-1,0,-2
1513230577648980,1,-7,0,-1,-3,0,0,-1
1513230577663490,0,4,0,-3,-2,-3,0,1
1513230577663490,1,-2,-2,-1,-2,-1,-1,-2
1513230577671994,-1,3,0,0,-1,-2,-1,-2
1513230577671994,-2,-6,-3,0,0,1,1,-4
1513230577678513,-1,-5,-1,0,0,0,-1,-2
1513230577678513,-1,1,1,-1,-2,-1,-2,1
1513230577702025,0,2,1,-2,0,-1,-1,-1
1513230577702025,-1,-1,-4,0,-1,0,0,-1
1513230577704025,2,-1,-4,-2,-3,0,0,-2
1513230577704025,0,-2,-4,-2,-1,-2,0,-3
1513230577709020,-5,-3,0,-1,-2,-1,-2,-1
1513230577709020,0,-3,0,0,-1,0,0,1
1513230577723530,-5,1,2,-1,1,0,0,-2
1513230577723530,-1,1,0,-1,0,1,1,0
1513230577732036,-2,-1,0,-2,-2,-1,0,-1
1513230577732036,1,-1,-3,-2,-3,0,-1,0
1513230577734037,0,0,-1,-1,-2,-1,-2,-1
1513230577734037,0,-4,-1,-1,-1,-2,-2,-1
1513230577754575,-1,-1,0,-1,-1,1,1,-1
1513230577754575,-4,-2,-2,-2,-1,-3,0,-2
1513230577756053,1,2,1,-2,-1,1,-1,-1
1513230577756053,-3,1,-1,-1,-2,-3,-3,-1
1513230577769072,0,0,-4,-1,-1,0,-2,1
1513230577769072,-3,-3,-1,-1,-1,0,0,-2
1513230577776067,-2,0,-1,-1,-1,-1,-1,0
1513230577776067,-1,-5,-2,-4,-1,-1,-1,-1
1513230577792080,-2,-1,-2,0,0,-2,-1,-1
1513230577792080,1,2,0,-2,-1,-1,-2,-1
1513230577794080,-3,-6,-1,-1,-1,-2,-2,-2
1513230577794080,-4,0,1,1,1,0,1,1
1513230577814686,-1,0,-1,-2,-1,0,-1,-1
1513230577814686,-2,-1,-3,-2,1,-1,-3,-2
1513230577821184,-1,-1,-1,1,-2,-2,0,-2
1513230577821184,1,-3,-3,0,-1,0,-2,-2
1513230577829197,-1,3,0,-3,0,1,-1,-2
1513230577829197,0,1,-1,-1,-1,-2,-1,0
1513230577835708,0,-2,0,-1,0,0,0,0
1513230577835708,-1,2,1,-1,0,-1,0,-1
1513230577852198,-1,-4,-1,-1,-1,-1,-2,-1
1513230577852198,-8,-3,2,-1,0,-3,0,-2
1513230577854212,1,3,0,-2,-1,-1,-1,-1
1513230577854212,-1,-3,-1,-2,-1,0,-3,0
1513230577875224,2,-2,-2,-1,-3,-1,-2,-1
1513230577875224,1,-4,-3,0,0,-2,0,-3
1513230577876725,-2,-5,-3,-3,-1,-1,-1,-1
1513230577876725,-1,-2,-2,-2,-1,-1,0,-1
1513230577888247,-3,-3,-2,-2,-3,-1,-2,-2
1513230577888247,0,0,-1,-1,-3,-1,-2,-1
1513230577903237,-2,-3,-3,-1,-2,0,0,-1
1513230577903237,1,3,-1,-1,-2,-2,-1,-1
1513230577912240,-3,0,-1,-1,0,-1,-1,0
1513230577912240,1,-1,-1,-1,-2,-1,-1,0
1513230577913756,-1,-3,-3,-1,1,-3,1,-1
1513230577913756,-3,-5,-4,-1,-1,-1,1,-2
1513230577934259,-3,4,2,0,0,0,0,0
1513230577934259,2,-3,-2,-2,-1,-1,-1,0
1513230577934756,-1,0,-1,-1,-1,0,-2,-1
1513230577934756,0,1,-1,-1,-1,-2,-2,-2
1513230577957774,-1,-7,-5,-2,-1,-2,-3,-3
1513230577957774,0,1,-3,-2,-2,-2,-3,1
1513230577958776,-2,-2,-1,-1,-2,-1,-1,-1
1513230577958776,-1,-2,-2,0,-2,-1,0,-1
1513230577971799,1,0,-2,0,1,0,1,0
1513230577971799,-1,-5,-1,-1,0,1,0,0
1513230577972282,-6,6,1,-3,-2,-2,-2,-3
1513230577972282,-1,-1,-1,0,-2,0,0,-1
1513230577993798,-1,2,-1,-4,0,0,-3,0
1513230577993798,-3,-2,0,1,-2,-1,0,-1
1513230577994799,0,-1,0,-1,-1,-1,0,-1
1513230577994799,0,-3,-3,-1,-1,-1,-4,-2
1513230578017314,-4,3,5,1,0,1,1,-1
1513230578017314,2,-3,-2,-2,-1,-3,-1,0
1513230578017815,0,-3,-3,-1,-1,0,-3,-2
1513230578017815,-2,-1,-3,-1,-2,-2,-2,-1
1513230578031825,3,-3,-3,0,-2,-2,-1,0
1513230578031825,-1,1,0,-1,-1,0,-1,-2
1513230578032325,-2,-2,-2,0,0,-2,-1,1
1513230578032325,-2,4,1,-2,-1,-1,-2,0
1513230578053862,1,-2,-1,-2,-1,-1,0,-2
1513230578053862,-3,-2,-2,-1,-2,-2,-1,-2
1513230578054864,0,-2,0,-1,-1,-1,-2,-1
1513230578054864,-2,-1,1,-1,1,-1,-2,-2
1513230578085363,-2,-3,-2,0,-1,-2,-2,-1
1513230578085363,0,3,0,-1,-2,2,-1,-1
1513230578085863,2,-6,-4,2,0,0,-1,-2
1513230578085863,2,0,0,-4,0,-1,-1,0
1513230578091367,-2,4,0,-1,-1,0,-1,0
1513230578091367,-3,-2,-3,0,-2,-1,-1,-1
1513230578098875,-3,0,-1,1,-1,-1,0,0
1513230578098875,1,-3,1,1,0,1,0,-2
1513230578114386,-3,1,0,-1,-1,-3,-2,-3
1513230578114386,-5,-1,1,1,0,-1,0,1
1513230578115384,0,-1,-1,-1,-1,-1,-2,0
1513230578115384,1,-1,-2,-1,-2,-1,-1,1
1513230578137414,-2,-7,-1,-2,-2,-1,-1,0
1513230578137414,0,0,-2,0,1,-2,-1,-1
1513230578137900,-1,2,1,-1,-1,0,-2,-1
1513230578137900,-1,-2,0,-2,0,1,0,-2
1513230578151910,1,-1,-1,-1,-1,-1,0,-2
1513230578151910,-2,0,-1,-2,-1,-1,-1,-2
1513230578152911,-1,-4,-2,-2,-2,-1,-1,0
1513230578152911,-2,-2,-2,-1,-2,-1,-1,-2
1513230578173947,0,3,-1,-2,-3,-1,-2,-1
1513230578173947,0,-3,-1,-2,-2,0,-2,0
1513230578174927,0,-2,-3,-1,-1,0,-1,-1
1513230578174927,-4,-9,-6,-3,-3,-2,-3,-3
1513230578204957,0,-1,-2,0,0,-2,-1,-1
1513230578204957,1,1,-3,-2,-2,-1,0,-2
1513230578205447,-1,1,0,0,0,1,1,0
1513230578205447,1,0,-1,-1,-2,-2,-2,-1
1513230578211452,0,-4,-5,1,-1,0,-2,-1
1513230578211452,0,0,-1,-1,-1,-2,-2,-2
1513230578212454,-3,-2,-1,-2,-2,-1,-1,-2
1513230578212454,-1,2,0,-1,1,-1,-1,-1
1513230578233991,2,-4,-3,-3,-2,-1,-2,0
1513230578233991,-2,-1,-1,0,-1,-2,-2,-1
1513230578234992,1,-3,-1,-2,-2,-4,0,-1
1513230578234992,-1,2,2,-1,-2,-1,-1,0
1513230578256984,0,-4,-1,-2,-2,0,1,0
1513230578256984,-1,-2,1,-4,0,0,0,-1
1513230578257985,-2,4,0,-2,-2,-1,-2,-1
1513230578257985,0,-1,-2,-1,-2,-1,-1,-1
1513230578271994,-2,0,-3,0,0,0,-1,-1
1513230578271994,0,-1,1,0,-2,-2,-2,-3
1513230578273010,0,-2,0,-2,-2,-2,-2,-2
1513230578273010,-2,0,0,-2,0,-1,0,1
1513230578294024,-2,2,2,-2,-1,-2,-1,-2
1513230578294024,-1,0,-3,0,-1,-2,-2,1
1513230578295018,-1,0,-2,0,0,0,-2,0
1513230578295018,-3,-1,0,1,0,-1,-2,-2
1513230578317027,-3,-2,2,1,0,-2,-1,-1
1513230578317027,2,1,-3,-2,-2,-1,-2,-1
1513230578318028,0,-3,-3,-2,-1,-3,1,-1
1513230578318028,-2,-3,-2,0,-1,-1,-1,0
1513230578331538,0,1,-2,0,0,-2,-2,-2
1513230578331538,0,3,0,-2,-1,0,-1,0
1513230578332037,-1,-1,-1,-1,-1,0,0,0
1513230578332037,-6,1,1,0,1,-1,0,-3
1513230578354074,0,-4,-1,0,0,0,-2,-1
1513230578354074,1,-1,-1,1,0,-1,-1,-3
1513230578354553,-3,-2,0,-2,-3,0,-2,-2
1513230578354553,3,-1,-3,-1,0,-1,-1,-1
1513230578377580,-1,-1,0,-3,-1,-2,0,-1
1513230578377580,-1,0,1,-2,-1,-1,-1,0
1513230578378580,0,-1,-1,-1,0,-1,-1,-1
1513230578378580,1,-7,-3,-2,-1,-2,1,0
1513230578391590,-1,4,-2,-1,-3,-1,0,-2
1513230578391590,-1,-4,-1,-1,0,-1,-1,-1
1513230578392079,0,0,-1,-1,-2,0,0,-1
1513230578392079,-1,-3,-2,-2,0,0,-2,0
1513230578414109,-2,-5,-3,-1,-1,-1,0,0
1513230578414109,-1,3,0,-2,-1,0,1,0
1513230578414595,-2,-2,-1,0,0,-1,0,-3
1513230578414595,0,2,-1,-1,-1,-1,-1,-3
1513230578437114,-4,-1,1,0,1,0,0,0
1513230578437114,-3,-4,-2,-1,-1,-3,-1,-1
1513230578438112,-1,0,-2,-1,0,-2,0,-1
1513230578438112,-2,1,-1,-1,-1,-1,-1,-2
1513230578451647,1,-1,-1,-3,0,-2,-1,-2
1513230578451647,-2,-3,-2,0,-2,0,0,-1
1513230578452147,-2,-2,-1,-1,0,-2,-1,0
1513230578452147,1,2,-1,-3,-3,-3,-1,2
1513230578474178,-2,1,-1,-2,-1,0,-1,-1
1513230578474178,-1,-2,-2,-1,-1,-1,-1,-2
1513230578474677,0,-2,-3,-1,0,-1,-2,-1
1513230578474677,-1,-1,0,-1,-2,-1,-1,0
1513230578497182,-1,-2,0,0,-2,-1,-1,-1
1513230578497182,-3,-1,-1,-1,-1,-1,-1,2
1513230578498180,-1,0,0,-2,-1,-1,-1,2
1513230578498180,-2,-4,-1,-2,1,-1,-1,-2
1513230578511692,1,-2,-1,-1,-2,-1,-1,0
1513230578511692,-5,-8,-5,-2,0,-1,-2,-2
1513230578512190,-1,0,-1,-3,-1,-1,-1,-2
1513230578512190,-2,-1,1,-2,0,1,0,-2
1513230578533708,-1,0,-2,-1,-2,-1,-2,-2
1513230578533708,-2,-2,-1,1,-1,-1,-2,-2
1513230578534706,2,-4,-3,-1,0,-1,0,1
1513230578534706,-2,0,-1,-2,-2,0,0,-1
1513230578557721,-1,1,0,-1,-1,-2,0,1
1513230578557721,0,3,-1,-1,0,-4,-1,-3
1513230578558222,-1,-5,-3,-2,-2,-1,-1,-1
1513230578558222,-1,-3,-2,0,-1,-1,-1,0
1513230578571751,0,-4,-2,-1,-1,-1,0,-1
1513230578571751,-1,2,1,-3,-3,-2,-2,-1
1513230578572231,-2,3,-1,-1,-1,0,-2,-2
1513230578572231,0,0,-1,-2,-1,0,-2,-1
1513230578594247,1,0,0,-3,0,-1,-3,-1
1513230578594247,0,-2,-1,-1,0,0,0,-3
1513230578595248,-1,-1,1,1,0,-2,0,-3
1513230578595248,-1,-7,-5,-2,-2,-1,-2,-2
1513230578617263,-2,-3,-3,0,-1,-1,-1,-2
1513230578617263,-1,-2,-2,0,0,0,-1,0
1513230578623768,0,1,-1,-2,-3,0,-2,-1
1513230578623768,-2,0,-2,-2,-1,-1,-1,0
1513230578631276,-2,-5,-4,-2,-1,-2,-2,-1
1513230578631276,1,6,-1,-1,-2,-2,-1,0
1513230578632275,-2,-2,-2,-1,-1,-1,0,-1
1513230578632275,-4,0,0,1,-1,-1,-1,-2
1513230578653867,1,-2,-2,-2,-1,-1,-2,0
1513230578653867,-1,-4,-1,-1,-1,1,-2,0
1513230578654865,1,2,0,0,-1,-2,-1,0
1513230578654865,0,1,0,0,-2,-2,-1,0
1513230578677370,-2,1,0,-1,0,0,0,0
1513230578677370,-1,-4,-1,-2,0,0,1,0
1513230578677861,-3,-1,0,-3,-1,-1,-2,-1
1513230578677861,-1,-2,-3,0,-1,0,-1,-2
1513230578691371,0,0,-3,0,-3,-1,-1,-1
1513230578691371,-3,-1,-2,-2,0,-2,-1,-1
1513230578692371,-1,-1,0,-1,-2,-2,-1,0
1513230578692371,2,-2,0,-1,-3,0,-1,-1
1513230578713889,1,2,2,-1,0,0,0,0
1513230578713889,-2,-5,-2,-1,-1,0,-1,0
1513230578714887,0,1,-2,-1,-1,1,0,-1
1513230578714887,-3,0,0,-1,1,-1,-1,-2
1513230578737402,-2,-1,-1,0,-1,0,1,-1
1513230578737402,-2,-5,-2,1,0,-1,-1,0
1513230578737903,1,6,1,-2,-1,-2,-2,-1
1513230578737903,0,-2,-1,-1,-1,0,0,1
1513230578751438,0,2,1,-1,-1,1,-2,-1
1513230578751438,-1,-3,-2,-1,-2,-1,-1,-3
1513230578752414,1,1,-2,-1,-3,0,-2,-2
1513230578752414,0,-2,-2,-3,0,0,-1,-1
1513230578773940,-2,-1,-2,-1,-1,-1,-1,-1
1513230578773940,-1,-2,-1,0,-1,-1,-1,-3
1513230578774929,-1,-4,-1,-1,-1,0,-1,-1
1513230578774929,-1,-1,0,0,-2,-1,-2,0
1513230578796445,-2,-1,0,0,-1,-2,-2,-1
1513230578796445,-1,1,-1,-3,-1,-1,-1,-2
1513230578803953,-1,-1,-1,-1,-1,-1,-2,-1
1513230578803953,-2,-4,-1,-1,-1,-4,0,-2
1513230578811456,1,-3,-1,-1,2,0,0,0
1513230578811456,-2,0,0,1,-2,1,-2,0
1513230578812456,2,-7,-3,-2,0,1,0,0
1513230578812456,-1,13,2,1,0,0,1,-1
1513230578833996,0,1,2,-2,-2,0,1,-2
1513230578833996,1,1,0,-2,0,-1,-2,-1
1513230578834973,-7,-1,4,1,1,-1,1,1
1513230578834973,0,-4,0,-1,-1,-1,-3,0
1513230578857491,-2,-2,-3,0,0,-1,-2,-1
1513230578857491,1,1,-1,-1,-2,-2,-1,-3
1513230578858008,-3,-5,-3,-3,-1,-1,0,-3
1513230578858008,-2,-2,-1,-2,-3,-2,-1,-1
1513230578871505,-1,-1,0,0,-1,-1,-2,0
1513230578871505,0,-1,-3,0,-1,1,-2,0
1513230578872003,-1,-1,-2,-1,-1,-1,-3,-1
1513230578872003,-1,-2,-2,-1,0,-2,-1,-3
1513230578894014,2,-1,-4,-1,-3,-1,0,0
1513230578894014,-2,-1,-1,-1,0,-2,1,1
1513230578895014,-1,2,0,0,-3,0,0,0
1513230578895014,-2,-3,-2,-2,-1,-1,-2,-1
1513230578917030,-1,-3,-3,-1,0,-2,-2,-2
1513230578917030,0,-3,-1,-2,-1,-1,0,-3
1513230578918031,-3,-1,1,-1,-2,-1,-2,-2
1513230578918031,0,0,1,-2,-1,-3,-2,0
1513230578931540,-1,-3,-1,-1,-1,-1,-1,1
1513230578931540,0,1,-1,-1,0,-1,-2,-1
1513230578946551,3,-4,-3,-1,0,-1,0,0
1513230578946551,0,0,4,1,-2,0,2,3
1513230578954059,-4,8,0,-2,-1,-1,0,-2
1513230578954059,0,-1,0,-2,-2,-1,-1,-1
1513230578954556,-2,-6,-2,-1,-1,-2,-1,-3
1513230578954556,0,-1,-4,0,-2,-2,-1,0
1513230578977072,1,4,-1,0,-1,-2,-1,1
1513230578977072,-3,-2,0,-1,-2,0,0,-1
1513230578978073,0,0,-2,-1,0,-2,-3,-2
1513230578978073,-1,-3,-1,-1,0,0,-1,-2
1513230578990582,-3,-6,-1,-2,-3,0,-1,1
1513230578990582,-2,1,1,-2,-2,-4,0,-1
1513230578999090,-2,-2,-3,0,-1,-2,0,-2
1513230578999090,-3,-1,-1,0,-2,-1,0,-3
1513230579014601,-1,-3,-1,-1,-1,-1,-1,-2
1513230579014601,-1,0,-1,-2,-2,0,-2,2
1513230579015100,-2,0,0,-2,-2,-1,-1,0
1513230579015100,-1,-4,-5,-2,-1,-2,-2,-1
1513230579037117,-2,-2,-1,-1,1,-1,-4,-2
1513230579037117,-2,0,0,0,-2,-1,-1,-2
1513230579038116,2,5,3,0,-1,-1,1,1
1513230579038116,-2,-1,1,0,1,1,0,1
1513230579051129,-1,-6,0,-1,1,-2,1,0
1513230579051129,1,-6,-3,-1,-1,-1,0,-2
1513230579058631,-1,3,-2,-2,-1,-2,-3,-2
1513230579058631,2,-2,-2,-2,-2,-3,-2,1
1513230579074141,-6,4,2,-1,-1,-1,-1,-2
1513230579074141,0,-2,-3,2,1,0,-4,0
1513230579074642,-1,-3,-2,-1,1,-1,0,-1
1513230579074642,3,1,-2,-3,0,-2,-1,-2
1513230579097157,0,-5,-2,0,1,-1,-1,-1
1513230579097157,-1,1,-1,-1,-2,-2,-1,-1
1513230579098157,-3,-3,0,-2,-4,-1,-2,-1
1513230579098157,-3,3,-1,-1,0,1,0,-1
1513230579110671,0,-2,-3,-2,-3,-2,-1,-1
1513230579110671,-2,-2,-2,-3,-2,-1,0,-1
1513230579119172,-1,-1,0,0,-3,-1,-2,-1
1513230579119172,-1,-5,-1,0,-1,0,-1,-2
1513230579134183,3,3,0,-1,-2,-1,-3,-1
1513230579134183,-1,-1,-3,0,-1,-2,-1,0
1513230579134684,-2,-4,-4,-1,0,-1,0,-1
1513230579134684,-6,-5,-2,-1,0,-2,-1,-2
1513230579157201,-2,-1,-1,-2,1,1,1,-2
1513230579157201,-2,3,0,-2,0,-3,0,1
1513230579157700,-1,-1,-2,-1,-2,-1,-1,0
1513230579157700,0,-4,-4,-1,-1,0,-1,-1
1513230579170709,-1,4,-1,0,-1,0,0,0
1513230579170709,-3,-2,0,0,-1,0,-1,-1
1513230579178729,-1,-4,-5,-1,0,-1,-2,-1
1513230579178729,0,-2,-1,-1,-2,-1,-1,0
1513230579193726,0,-4,-2,1,-1,0,0,0
1513230579193726,0,0,-2,-1,-3,-1,-1,-1
1513230579194726,-1,0,2,-1,0,0,-1,-2
1513230579194726,-2,2,1,-2,1,-1,-2,-2
1513230579217243,0,-3,-2,-2,0,0,0,-1
1513230579217243,0,0,-2,-1,1,0,-1,0
1513230579217744,0,-1,-2,-1,-1,0,-2,-2
1513230579217744,0,-1,-2,0,-2,-2,-1,-1
1513230579230753,0,0,-1,-1,0,-2,1,-1
1513230579230753,-1,-4,-2,-1,-1,0,-1,-1
1513230579238758,-2,0,-1,-1,-2,0,0,0
1513230579238758,-3,-5,0,1,-1,0,-1,-2
1513230579253768,-1,0,0,-3,-2,-2,-2,-2
1513230579253768,-2,0,0,0,-2,-1,-1,-3
1513230579254769,-3,2,0,-1,0,-2,-1,-2
1513230579254769,2,-1,-1,-2,0,-1,-1,-2
1513230579277285,-2,-6,-1,-2,-3,-1,-2,-1
1513230579277285,-1,0,-1,-1,0,0,-3,0
1513230579277785,2,-6,-3,-2,-2,-2,-2,0
1513230579277785,-4,0,0,-1,1,-1,0,-3
1513230579299800,0,-1,1,0,1,-2,-1,-1
1513230579299800,-1,-4,-1,-2,-1,0,-2,-1
1513230579300300,1,-1,-1,-1,-1,-1,0,0
